SampleCount,PPG1,PPG2,BioZ1,BioZ2,GAIN1,GAIN2,DAC1,DAC2
0,22678,52551,42,22,3,7,.1,.1
1,22678,52524,44,24
2,22668,52530,46,24
3,22673,52529,46,22
4,22672,52510,48,24
5,22663,52514,47,23
6,22668,52502,46,23
7,22663,52490,47,23
8,22658,52487,47,23
9,22658,52492,47,22
10,22660,52477,48,24
11,22655,52486,44,23
12,22661,52489,49,23
13,22663,52462,49,23
14,22654,52477,48,24
15,22661,52467,47,25
16,22658,52459,48,22
17,22656,52454,47,23
18,22657,52455,47,21
19,22655,52452,50,25
20,22653,52455,47,23
21,22651,52454,49,23
22,22648,52442,48,23
23,22644,52451,49,23
24,22645,52448,47,25
25,22642,52447,47,22
26,22643,52447,48,23
27,22643,52445,49,24
28,22644,52443,47,24
29,22646,52449,48,24
30,22648,52427,47,24
31,22640,52442,47,21
32,22648,52418,50,24
33,22640,52428,49,22
34,22644,52413,48,24
35,22636,52411,48,23
36,22638,52413,46,26
37,22639,52417,46,24
38,22638,52414,47,24
39,22636,52409,48,23
40,22631,52422,47,23
41,22634,52413,48,24
42,22631,52419,48,23
43,22634,52416,47,22
44,22629,52423,49,24
45,22634,52423,46,24
46,22632,52428,47,22
47,22634,52417,47,24
48,22629,52423,49,24
49,22632,52398,48,24
50,22620,52429,49,24
51,22634,52397,48,24
52,22619,52428,49,24
53,22631,52401,48,26
54,22620,52421,47,23
55,22627,52423,47,22
56,22623,52427,49,24
57,22624,52433,48,25
58,22627,52428,49,25
59,22625,52431,49,26
60,22626,52429,48,25
61,22627,52433,48,24
62,22625,52442,46,24
63,22626,52445,49,25
64,22626,52416,48,23
65,22613,52445,48,25
66,22622,52422,49,25
67,22612,52439,48,26
68,22620,52437,47,25
69,22615,52441,48,26
70,22619,52428,48,25
71,22614,52437,47,24
72,22623,52435,47,24
73,22621,52426,48,25
74,22620,52427,47,24
75,22622,52412,49,25
76,22617,52431,49,26
77,22623,52409,48,25
78,22616,52421,47,25
79,22618,52401,47,24
80,22615,52409,48,24
81,22617,52402,48,26
82,22614,52416,48,25
83,22617,52409,49,24
84,22616,52409,47,23
85,22615,52404,48,22
86,22612,52421,50,25
87,22621,52407,48,24
88,22616,52421,46,24
89,22625,52410,48,23
90,22619,52419,48,22
91,22622,52412,49,24
92,22619,52416,48,23
93,22622,52412,48,23
94,22618,52421,48,22
95,22621,52407,50,23
96,22613,52428,47,24
97,22620,52432,48,23
98,22622,52419,48,23
99,22615,52432,48,23
100,22621,52425,48,24
101,22616,52438,48,23
102,22620,52448,48,25
103,22622,52443,48,23
104,22622,52454,47,22
105,22626,52465,46,23
106,22630,52441,48,22
107,22617,52457,47,24
108,22623,52449,46,24
109,22619,52463,47,23
110,22623,52450,47,23
111,22615,52473,47,23
112,22624,52460,49,23
113,22614,52481,45,23
114,22622,52480,48,23
115,22622,52480,46,25
116,22621,52489,49,24
117,22623,52489,50,26
118,22624,52501,49,23
119,22628,52493,47,24
120,22624,52502,47,23
121,22630,52493,50,24
122,22626,52492,46,24
123,22623,52505,48,26
124,22629,52483,48,25
125,22619,52508,48,26
126,22628,52492,47,25
127,22619,52503,49,25
128,22625,52505,49,25
129,22624,52504,48,24
130,22626,52504,48,23
131,22629,52509,48,26
132,22631,52499,48,24
133,22629,52496,49,24
134,22630,52486,48,26
135,22627,52485,49,25
136,22630,52489,48,25
137,22633,52475,48,24
138,22625,52496,48,25
139,22633,52494,47,24
140,22630,52490,47,24
141,22628,52502,48,23
142,22632,52496,47,23
143,22629,52502,48,25
144,22629,52508,48,24
145,22632,52513,49,23
146,22635,52511,50,24
147,22632,52520,45,23
148,22639,52527,49,23
149,22639,52522,48,23
150,22636,52531,49,24
151,22637,52525,50,22
152,22632,52544,49,24
153,22637,52532,48,23
154,22629,52554,50,23
155,22636,52546,50,24
156,22631,52576,48,24
157,22636,52576,48,23
158,22632,52577,48,23
159,22632,52590,48,22
160,22635,52598,48,23
161,22636,52618,48,22
162,22643,52611,47,23
163,22636,52628,48,22
164,22642,52640,46,21
165,22647,52637,49,22
166,22646,52615,49,24
167,22634,52649,47,25
168,22646,52624,48,23
169,22631,52655,48,25
170,22642,52641,49,24
171,22634,52654,49,23
172,22636,52670,49,23
173,22641,52687,46,25
174,22646,52674,48,24
175,22639,52693,47,25
176,22645,52679,48,23
177,22639,52699,48,25
178,22648,52687,47,25
179,22641,52704,49,23
180,22648,52688,48,23
181,22640,52712,46,25
182,22648,52718,49,24
183,22649,52691,48,24
184,22639,52714,50,25
185,22643,52702,48,24
186,22640,52712,47,23
187,22646,52712,47,25
188,22644,52721,48,25
189,22645,52711,47,24
190,22641,52741,45,23
191,22653,52737,47,24
192,22651,52737,48,23
193,22650,52734,47,25
194,22647,52733,47,24
195,22647,52744,48,23
196,22648,52745,48,23
197,22647,52751,48,23
198,22646,52764,45,25
199,22647,52769,47,24
200,22649,52759,48,22
201,22642,52780,48,23
202,22649,52783,49,24
203,22649,52779,49,25
204,22649,52782,49,23
205,22650,52783,47,24
206,22651,52778,48,23
207,22648,52791,45,25
208,22653,52791,48,23
209,22653,52792,48,25
210,22652,52795,47,23
211,22651,52799,46,25
212,22651,52796,47,24
213,22647,52814,49,23
214,22652,52804,48,23
215,22648,52830,46,23
216,22651,52830,48,23
217,22650,52829,46,23
218,22647,52849,49,23
219,22654,52841,47,22
220,22648,52843,48,23
221,22652,52847,50,23
222,22652,52851,49,23
223,22652,52859,48,24
224,22654,52875,47,25
225,22658,52866,46,23
226,22654,52864,49,25
227,22648,52882,49,23
228,22651,52882,49,22
229,22649,52890,47,22
230,22648,52888,49,24
231,22646,52917,47,22
232,22652,52916,45,23
233,22648,52924,47,23
234,22650,52914,46,22
235,22647,52940,50,22
236,22658,52910,49,22
237,22643,52940,50,23
238,22658,52916,48,23
239,22648,52928,46,23
240,22650,52929,47,24
241,22650,52932,47,22
242,22652,52931,47,21
243,22651,52915,48,21
244,22641,52943,47,22
245,22654,52934,48,23
246,22645,52949,48,24
247,22651,52939,48,23
248,22648,52950,49,23
249,22653,52953,48,24
250,22651,52961,49,23
251,22657,52963,48,23
252,22656,52959,49,23
253,22656,52956,48,22
254,22654,52953,49,23
255,22654,52958,49,22
256,22654,52949,48,24
257,22650,52952,49,24
258,22651,52965,47,23
259,22654,52965,49,22
260,22651,52961,48,23
261,22650,52974,48,23
262,22655,52969,49,23
263,22656,52967,50,22
264,22653,52974,48,25
265,22657,52974,50,23
266,22658,52967,48,24
267,22656,52970,47,20
268,22656,52975,48,24
269,22659,52975,50,22
270,22658,52973,49,23
271,22655,52976,49,23
272,22653,52984,48,24
273,22657,52965,48,23
274,22647,52991,46,23
275,22658,53007,46,22
276,22661,52997,48,21
277,22656,53004,47,22
278,22659,53007,48,23
279,22658,53005,47,25
280,22658,53008,47,23
281,22660,53016,49,22
282,22663,53013,47,23
283,22661,53027,45,24
284,22662,53032,48,22
285,22663,53012,49,23
286,22654,53038,46,22
287,22667,53005,49,22
288,22651,53041,48,23
289,22667,53012,48,22
290,22655,53030,48,23
291,22662,53020,49,24
292,22659,53031,47,22
293,22663,53025,48,22
294,22664,53038,48,23
295,22666,53022,48,22
296,22663,53034,49,22
297,22671,53013,48,21
298,22662,53019,48,22
299,22666,53012,48,22
300,22667,53000,45,23
301,22665,53006,47,22
302,22667,52992,48,23
303,22661,53005,47,22
304,22663,53007,48,23
305,22663,53011,46,23
306,22663,53011,48,23
307,22663,53015,48,22
308,22664,53011,47,22
309,22665,53029,46,21
310,22675,53023,48,24
311,22672,53024,48,21
312,22671,53020,47,22
313,22671,53019,50,23
314,22670,53025,47,23
315,22670,53026,48,22
316,22668,53042,48,22
317,22672,53044,47,23
318,22672,53054,48,22
319,22674,53055,46,23
320,22670,53066,48,21
321,22672,53072,48,22
322,22671,53088,47,23
323,22675,53084,48,22
324,22668,53110,47,22
325,22681,53096,48,22
326,22672,53112,46,24
327,22675,53119,47,22
328,22676,53116,47,21
329,22673,53127,47,22
330,22673,53130,47,23
331,22671,53145,49,22
332,22672,53148,47,23
333,22671,53150,48,20
334,22670,53177,46,21
335,22677,53180,46,22
336,22677,53176,47,22
337,22674,53180,48,22
338,22674,53186,48,21
339,22676,53191,49,22
340,22678,53179,49,22
341,22673,53198,48,23
342,22680,53204,47,23
343,22679,53208,46,22
344,22681,53202,47,23
345,22676,53214,47,23
346,22678,53211,47,21
347,22675,53217,47,22
348,22675,53215,47,23
349,22677,53215,50,25
350,22675,53233,48,23
351,22681,53240,47,21
352,22680,53249,48,22
353,22684,53241,49,21
354,22681,53263,49,22
355,22687,53257,49,23
356,22684,53262,49,23
357,22687,53264,49,22
358,22687,53258,49,23
359,22684,53261,48,25
360,22684,53271,47,23
361,22682,53266,49,24
362,22679,53269,49,23
363,22678,53274,49,24
364,22678,53286,50,25
365,22683,53288,50,25
366,22683,53295,47,25
367,22684,53301,48,24
368,22683,53321,47,23
369,22693,53327,48,25
370,22695,53311,48,24
371,22686,53322,50,25
372,22689,53319,48,24
373,22686,53330,48,24
374,22688,53334,49,25
375,22685,53343,48,23
376,22686,53345,50,24
377,22685,53365,47,24
378,22684,53377,48,23
379,22689,53364,48,24
380,22681,53392,49,24
381,22692,53383,49,23
382,22688,53399,50,25
383,22694,53394,48,24
384,22691,53412,48,25
385,22696,53408,45,24
386,22696,53411,48,25
387,22697,53407,48,23
388,22693,53413,48,24
389,22694,53415,49,25
390,22694,53406,48,22
391,22689,53429,50,23
392,22696,53411,49,22
393,22688,53439,49,23
394,22699,53442,47,23
395,22702,53424,47,22
396,22691,53442,46,22
397,22698,53442,47,23
398,22700,53440,48,24
399,22701,53438,48,22
400,22703,53441,50,24
401,22703,53437,48,23
402,22699,53448,47,22
403,22702,53455,48,23
404,22704,53453,47,22
405,22699,53446,49,24
406,22697,53464,48,22
407,22705,53453,48,23
408,22698,53471,48,24
409,22703,53463,48,24
410,22700,53473,49,22
411,22705,53481,46,22
412,22710,53470,47,22
413,22706,53482,48,21
414,22711,53470,50,23
415,22706,53478,48,21
416,22710,53481,48,23
417,22709,53481,48,21
418,22711,53473,49,22
419,22706,53491,46,22
420,22712,53492,48,22
421,22711,53475,48,22
422,22702,53502,49,22
423,22712,53487,48,22
424,22706,53498,49,23
425,22711,53498,51,23
426,22711,53503,48,23
427,22713,53513,48,22
428,22714,53524,46,21
429,22719,53518,48,23
430,22715,53524,47,23
431,22721,53514,48,23
432,22713,53520,47,24
433,22716,53508,48,24
434,22711,53524,48,23
435,22716,53526,48,26
436,22715,53517,47,25
437,22711,53520,48,23
438,22715,53534,49,25
439,22720,53522,48,24
440,22715,53538,47,26
441,22723,53527,48,26
442,22718,53539,49,25
443,22723,53530,48,24
444,22719,53545,48,25
445,22725,53535,47,25
446,22727,53516,46,25
447,22718,53529,47,24
448,22722,53512,47,23
449,22719,53531,49,23
450,22724,53521,49,24
451,22721,53523,49,24
452,22720,53521,47,25
453,22720,53535,46,23
454,22727,53536,48,23
455,22727,53519,47,25
456,22722,53537,48,24
457,22734,53513,49,23
458,22726,53518,48,24
459,22733,53511,48,25
460,22731,53519,49,25
461,22732,53512,48,25
462,22729,53523,47,23
463,22735,53505,47,23
464,22726,53526,47,25
465,22733,53514,48,23
466,22725,53528,49,23
467,22729,53513,48,24
468,22725,53539,47,24
469,22735,53521,48,23
470,22725,53543,45,24
471,22736,53546,48,25
472,22737,53539,49,26
473,22734,53540,48,23
474,22737,53537,48,24
475,22733,53534,48,24
476,22735,53534,48,23
477,22731,53543,48,22
478,22733,53545,47,24
479,22735,53552,46,22
480,22734,53535,49,24
481,22729,53552,50,22
482,22733,53558,48,23
483,22733,53559,49,25
484,22731,53560,49,24
485,22734,53565,49,23
486,22737,53556,48,23
487,22731,53576,45,22
488,22737,53580,49,21
489,22740,53568,48,22
490,22734,53577,48,23
491,22737,53578,48,24
492,22733,53581,49,23
493,22733,53589,49,23
494,22735,53585,48,24
495,22733,53599,50,24
496,22733,53608,48,23
497,22732,53613,48,23
498,22736,53602,48,24
499,22731,53619,48,24
500,22737,53613,50,23
501,22733,53635,48,22
502,22741,53618,49,23
503,22732,53622,48,23
504,22733,53621,47,23
505,22732,53618,48,24
506,22729,53627,49,24
507,22730,53607,48,23
508,22722,53633,49,22
509,22730,53617,46,23
510,22723,53637,47,22
511,22728,53628,48,24
512,22725,53636,49,23
513,22726,53653,46,23
514,22731,53645,48,22
515,22727,53646,47,22
516,22727,53640,47,23
517,22726,53650,47,21
518,22727,53635,49,23
519,22722,53649,49,24
520,22723,53648,47,23
521,22722,53635,46,23
522,22716,53644,49,24
523,22719,53637,48,23
524,22713,53644,50,23
525,22716,53644,45,24
526,22712,53641,49,23
527,22709,53657,50,23
528,22715,53651,48,23
529,22712,53660,50,22
530,22716,53666,47,23
531,22720,53647,49,26
532,22712,53661,47,24
533,22715,53660,47,23
534,22711,53652,47,25
535,22710,53648,48,24
536,22709,53660,49,23
537,22711,53640,48,23
538,22700,53661,45,20
539,22702,53667,48,23
540,22703,53656,49,25
541,22699,53657,49,22
542,22699,53655,48,22
543,22701,53654,47,24
544,22700,53659,47,24
545,22700,53658,48,23
546,22701,53654,48,23
547,22700,53640,46,24
548,22698,53637,48,24
549,22701,53639,48,24
550,22698,53634,47,25
551,22697,53621,49,22
552,22691,53621,48,23
553,22688,53626,47,23
554,22689,53620,50,24
555,22685,53618,47,22
556,22687,53629,47,24
557,22693,53606,48,23
558,22683,53627,47,23
559,22690,53613,47,23
560,22685,53622,48,23
561,22690,53606,48,23
562,22684,53620,49,23
563,22690,53605,47,21
564,22683,53590,46,23
565,22681,53587,48,23
566,22681,53575,48,21
567,22679,53577,48,22
568,22679,53555,47,22
569,22671,53567,49,24
570,22681,53550,48,23
571,22674,53546,48,24
572,22675,53544,47,21
573,22677,53549,47,24
574,22680,53542,48,23
575,22677,53524,48,23
576,22677,53519,48,21
577,22676,53511,50,24
578,22677,53505,49,24
579,22677,53497,48,23
580,22675,53490,47,23
581,22674,53481,48,23
582,22669,53485,47,23
583,22671,53462,47,22
584,22663,53468,48,22
585,22666,53471,49,22
586,22666,53466,47,24
587,22666,53467,49,24
588,22669,53466,49,24
589,22668,53463,47,23
590,22670,53461,47,24
591,22669,53460,47,23
592,22670,53460,47,25
593,22670,53449,48,24
594,22664,53461,49,24
595,22670,53448,49,24
596,22663,53456,48,23
597,22665,53444,50,24
598,22660,53461,46,25
599,22665,53441,49,26
600,22654,53463,50,22
601,22665,53451,48,26
602,22658,53459,47,25
603,22662,53450,48,25
604,22663,53455,47,25
605,22664,53446,46,24
606,22660,53443,46,25
607,22661,53443,48,24
608,22661,53445,48,24
609,22663,53431,48,24
610,22658,53434,48,25
611,22659,53435,48,24
612,22659,53425,47,25
613,22655,53439,50,25
614,22659,53440,48,24
615,22659,53447,47,23
616,22660,53416,49,24
617,22650,53441,47,24
618,22663,53409,48,22
619,22650,53442,48,25
620,22666,53415,48,23
621,22652,53447,47,23
622,22668,53410,48,24
623,22652,53430,46,22
624,22661,53433,49,23
625,22663,53412,48,22
626,22655,53412,49,22
627,22655,53415,48,23
628,22654,53417,48,23
629,22655,53411,49,23
630,22652,53412,47,21
631,22652,53417,47,24
632,22655,53425,47,23
633,22656,53421,48,23
634,22659,53424,49,23
635,22661,53416,48,24
636,22658,53414,49,24
637,22657,53415,48,24
638,22658,53415,48,23
639,22657,53419,47,23
640,22658,53409,46,23
641,22655,53415,49,22
642,22660,53413,50,24
643,22656,53402,49,25
644,22655,53407,47,23
645,22657,53408,47,23
646,22658,53414,48,24
647,22660,53417,50,26
648,22661,53420,49,24
649,22659,53427,47,23
650,22666,53426,47,23
651,22666,53418,49,23
652,22662,53408,47,22
653,22659,53415,49,23
654,22665,53401,48,24
655,22657,53414,48,24
656,22665,53404,51,23
657,22657,53422,47,23
658,22663,53430,48,23
659,22664,53416,47,23
660,22659,53419,48,25
661,22662,53417,46,22
662,22666,53422,49,25
663,22669,53401,49,23
664,22662,53417,47,22
665,22670,53403,48,24
666,22664,53399,47,22
667,22668,53406,47,24
668,22668,53402,48,23
669,22668,53392,47,23
670,22662,53401,47,25
671,22668,53399,48,25
672,22666,53400,48,24
673,22665,53396,48,22
674,22663,53418,47,23
675,22671,53427,47,23
676,22674,53399,47,23
677,22664,53434,48,24
678,22678,53422,48,23
679,22673,53421,49,24
680,22676,53419,49,24
681,22674,53419,48,22
682,22675,53417,49,22
683,22672,53425,47,22
684,22679,53413,48,22
685,22671,53422,48,21
686,22673,53424,47,24
687,22675,53421,49,23
688,22673,53423,49,24
689,22672,53426,46,24
690,22676,53433,49,24
691,22675,53442,45,22
692,22683,53453,49,24
693,22687,53424,45,23
694,22675,53447,48,24
695,22685,53439,49,24
696,22680,53438,49,24
697,22679,53439,49,25
698,22679,53436,48,23
699,22677,53446,49,24
700,22682,53459,45,25
701,22685,53436,47,23
702,22673,53458,48,24
703,22680,53445,47,24
704,22674,53462,46,24
705,22682,53463,47,24
706,22679,53467,50,25
707,22683,53468,48,24
708,22682,53470,46,24
709,22688,53472,47,26
710,22688,53470,48,24
711,22686,53474,47,23
712,22687,53483,47,25
713,22689,53467,48,26
714,22682,53478,49,24
715,22688,53480,49,23
716,22686,53472,49,23
717,22682,53487,48,24
718,22689,53483,47,25
719,22686,53503,48,23
720,22692,53497,49,24
721,22690,53499,49,24
722,22691,53501,48,23
723,22692,53503,48,24
724,22694,53496,49,23
725,22693,53495,45,25
726,22694,53503,50,24
727,22696,53493,48,24
728,22690,53504,49,24
729,22691,53504,49,23
730,22693,53502,47,24
731,22694,53497,48,25
732,22687,53511,48,24
733,22691,53504,47,24
734,22690,53528,46,23
735,22699,53513,48,24
736,22693,53524,47,24
737,22697,53509,47,25
738,22692,53533,50,24
739,22702,53516,47,23
740,22693,53539,49,25
741,22701,53527,50,24
742,22694,53529,46,24
743,22694,53532,47,25
744,22696,53520,48,25
745,22690,53536,48,23
746,22693,53525,49,23
747,22689,53536,48,23
748,22692,53543,47,23
749,22693,53546,48,24
750,22693,53550,50,23
751,22696,53554,45,23
752,22700,53544,49,23
753,22696,53547,48,24
754,22699,53536,48,23
755,22696,53543,47,24
756,22700,53527,48,22
757,22692,53550,47,23
758,22700,53529,48,25
759,22691,53559,46,23
760,22701,53550,47,22
761,22697,53536,47,24
762,22690,53545,47,23
763,22696,53554,48,24
764,22698,53538,48,25
765,22690,53555,49,23
766,22699,53532,48,24
767,22690,53563,50,22
768,22703,53553,45,24
769,22699,53549,46,23
770,22695,53554,49,22
771,22698,53546,48,23
772,22695,53551,48,23
773,22694,53544,49,24
774,22694,53540,48,24
775,22692,53541,50,23
776,22694,53547,45,24
777,22696,53546,48,22
778,22697,53549,48,23
779,22696,53558,48,22
780,22700,53552,47,22
781,22698,53553,49,23
782,22698,53555,48,23
783,22702,53547,48,24
784,22697,53560,49,23
785,22703,53553,49,23
786,22703,53526,49,23
787,22693,53542,47,23
788,22699,53533,49,24
789,22693,53539,49,23
790,22697,53537,50,24
791,22696,53546,48,22
792,22699,53537,48,23
793,22693,53545,48,23
794,22699,53554,48,21
795,22703,53542,48,24
796,22698,53550,50,23
797,22703,53536,48,23
798,22697,53548,48,22
799,22707,53527,48,22
800,22699,53534,48,22
801,22703,53524,49,22
802,22701,53530,48,21
803,22703,53520,49,22
804,22699,53532,46,23
805,22702,53524,49,21
806,22699,53542,48,23
807,22704,53526,48,22
808,22696,53545,49,23
809,22701,53542,47,23
810,22700,53556,46,23
811,22708,53554,48,23
812,22708,53540,47,23
813,22703,53539,48,24
814,22706,53533,48,24
815,22704,53532,48,23
816,22706,53521,48,24
817,22702,53536,48,23
818,22704,53523,48,23
819,22700,53526,46,21
820,22704,53527,47,24
821,22703,53526,48,24
822,22703,53526,48,22
823,22702,53524,49,23
824,22705,53517,48,25
825,22704,53527,48,24
826,22709,53521,48,23
827,22706,53520,47,22
828,22714,53518,49,24
829,22711,53497,48,22
830,22703,53510,49,24
831,22710,53496,49,24
832,22703,53509,49,24
833,22711,53493,48,23
834,22701,53507,48,25
835,22710,53498,49,23
836,22703,53511,46,24
837,22707,53504,48,23
838,22704,53504,47,22
839,22706,53506,48,23
840,22706,53519,50,23
841,22711,53501,49,24
842,22707,53511,48,26
843,22712,53509,49,25
844,22712,53508,47,22
845,22709,53517,49,23
846,22712,53493,47,23
847,22703,53516,48,24
848,22711,53491,50,24
849,22699,53516,49,23
850,22708,53507,48,25
851,22707,53503,47,24
852,22705,53515,48,24
853,22710,53524,48,24
854,22717,53492,47,24
855,22706,53510,47,24
856,22715,53502,46,22
857,22714,53498,49,22
858,22716,53493,48,23
859,22715,53485,48,23
860,22712,53489,49,24
861,22713,53471,46,23
862,22711,53474,48,21
863,22712,53478,47,24
864,22711,53477,47,24
865,22714,53464,48,22
866,22708,53469,49,24
867,22712,53463,49,25
868,22711,53467,48,24
869,22716,53458,50,23
870,22715,53466,47,22
871,22723,53445,47,23
872,22715,53452,48,23
873,22722,53442,48,23
874,22718,53433,48,23
875,22718,53432,49,23
876,22720,53429,50,23
877,22720,53417,48,23
878,22715,53423,46,24
879,22720,53424,47,23
880,22720,53414,49,23
881,22717,53402,49,24
882,22714,53426,48,24
883,22724,53413,47,24
884,22720,53408,47,24
885,22722,53414,48,23
886,22726,53403,48,24
887,22727,53405,47,24
888,22731,53389,48,24
889,22724,53392,48,24
890,22725,53387,49,24
891,22724,53375,49,24
892,22723,53371,48,24
893,22725,53356,48,22
894,22719,53363,50,25
895,22723,53355,48,24
896,22727,53354,49,24
897,22726,53361,48,24
898,22730,53351,47,23
899,22728,53346,48,23
900,22731,53342,50,24
901,22732,53339,48,24
902,22732,53338,48,23
903,22736,53310,48,23
904,22725,53310,48,22
905,22728,53324,47,23
906,22736,53318,49,23
907,22734,53311,48,23
908,22729,53329,49,24
909,22737,53315,49,23
910,22732,53323,50,24
911,22736,53314,49,23
912,22732,53336,46,22
913,22741,53339,49,23
914,22744,53316,48,22
915,22735,53347,48,23
916,22747,53329,48,23
917,22740,53324,49,22
918,22739,53323,48,23
919,22741,53323,48,22
920,22742,53316,49,24
921,22738,53327,46,22
922,22744,53308,49,23
923,22737,53309,48,22
924,22738,53322,48,23
925,22740,53331,49,22
926,22744,53310,48,22
927,22735,53327,48,23
928,22741,53330,48,23
929,22748,53318,47,20
930,22747,53319,48,22
931,22745,53313,49,22
932,22746,53303,48,22
933,22745,53305,48,25
934,22746,53297,49,23
935,22740,53309,48,25
936,22745,53300,49,23
937,22739,53314,49,21
938,22744,53329,47,23
939,22747,53314,48,22
940,22739,53333,49,22
941,22746,53317,47,23
942,22742,53338,48,21
943,22751,53317,47,23
944,22740,53336,47,22
945,22750,53324,49,23
946,22745,53334,47,22
947,22750,53341,48,24
948,22751,53327,48,23
949,22747,53327,48,24
950,22745,53334,48,22
951,22747,53321,49,24
952,22743,53333,50,23
953,22749,53320,49,21
954,22742,53330,50,23
955,22746,53343,47,22
956,22752,53316,46,22
957,22744,53337,48,25
958,22756,53313,49,26
959,22748,53323,49,24
960,22757,53305,48,25
961,22752,53307,49,23
962,22752,53300,49,25
963,22750,53300,48,24
964,22756,53299,48,23
965,22754,53285,48,23
966,22746,53299,49,24
967,22752,53289,47,24
968,22747,53293,49,24
969,22748,53297,49,24
970,22752,53295,48,24
971,22752,53300,50,25
972,22753,53322,48,24
973,22764,53291,48,23
974,22754,53315,48,21
975,22763,53288,47,21
976,22753,53318,49,22
977,22764,53283,49,22
978,22751,53316,49,22
979,22763,53301,50,22
980,22753,53315,48,21
981,22759,53318,48,21
982,22762,53297,48,21
983,22753,53325,50,23
984,22762,53317,50,22
985,22754,53329,50,22
986,22760,53320,51,21
987,22756,53330,50,21
988,22759,53333,49,23
989,22760,53338,46,21
990,22763,53334,48,21
991,22761,53344,48,24
992,22761,53333,48,24
993,22758,53356,48,23
994,22769,53331,48,23
995,22755,53355,48,23
996,22766,53348,49,23
997,22760,53344,46,24
998,22760,53339,48,23
999,22756,53343,48,23
1000,22762,53337,48,23
1001,22760,53342,47,25
1002,22762,53343,47,23
1003,22767,53340,48,23
1004,22760,53350,48,24
1005,22767,53351,49,22
1006,22767,53355,47,25
1007,22767,53347,49,25
1008,22765,53354,49,24
1009,22765,53352,48,24
1010,22763,53359,49,24
1011,22763,53352,49,23
1012,22761,53358,48,25
1013,22761,53364,49,25
1014,22765,53378,46,24
1015,22769,53366,48,24
1016,22764,53369,48,25
1017,22767,53380,48,26
1018,22767,53380,49,24
1019,22766,53389,48,24
1020,22769,53384,48,23
1021,22765,53404,49,24
1022,22774,53388,48,22
1023,22764,53404,45,22
1024,22767,53403,48,24
1025,22765,53404,46,25
1026,22763,53412,49,24
1027,22764,53414,47,22
1028,22761,53420,48,24
1029,22762,53427,48,25
1030,22763,53424,50,23
1031,22761,53439,47,23
1032,22766,53447,49,24
1033,22767,53441,49,23
1034,22766,53449,48,24
1035,22768,53448,49,22
1036,22764,53461,48,24
1037,22765,53467,48,23
1038,22765,53468,48,23
1039,22763,53474,48,24
1040,22763,53482,46,24
1041,22760,53482,48,22
1042,22760,53492,47,22
1043,22765,53489,49,23
1044,22758,53502,47,22
1045,22765,53491,49,22
1046,22758,53510,47,22
1047,22765,53504,48,22
1048,22760,53516,45,24
1049,22763,53516,47,23
1050,22763,53521,47,24
1051,22764,53526,48,23
1052,22760,53530,48,23
1053,22761,53533,47,24
1054,22760,53539,49,24
1055,22757,53541,48,23
1056,22756,53547,49,23
1057,22757,53557,47,23
1058,22757,53546,48,24
1059,22753,53564,49,24
1060,22757,53550,47,23
1061,22752,53572,47,24
1062,22760,53564,47,24
1063,22756,53562,50,24
1064,22755,53560,48,25
1065,22755,53569,46,25
1066,22755,53557,49,25
1067,22749,53564,50,23
1068,22749,53567,48,23
1069,22749,53575,48,25
1070,22747,53569,49,25
1071,22742,53578,48,24
1072,22745,53577,48,25
1073,22742,53581,49,25
1074,22742,53600,47,23
1075,22750,53591,48,22
1076,22745,53594,49,22
1077,22745,53596,49,22
1078,22744,53601,49,22
1079,22746,53588,49,23
1080,22738,53599,48,24
1081,22743,53588,48,22
1082,22740,53605,47,23
1083,22742,53603,49,24
1084,22739,53574,49,22
1085,22729,53591,49,24
1086,22736,53571,47,24
1087,22729,53580,49,22
1088,22733,53569,48,22
1089,22728,53583,47,23
1090,22735,53565,48,24
1091,22728,53575,47,23
1092,22736,53551,48,23
1093,22724,53570,48,23
1094,22732,53550,48,25
1095,22725,53563,49,24
1096,22729,53551,49,24
1097,22722,53557,49,25
1098,22724,53541,48,26
1099,22716,53574,47,25
1100,22728,53574,47,24
1101,22724,53554,48,23
1102,22716,53571,48,23
1103,22721,53557,49,24
1104,22714,53574,47,21
1105,22719,53562,50,24
1106,22712,53584,47,23
1107,22721,53568,49,22
1108,22712,53577,46,22
1109,22716,53551,49,23
1110,22704,53585,48,22
1111,22718,53554,47,23
1112,22703,53580,48,23
1113,22711,53552,47,22
1114,22700,53583,48,23
1115,22711,53560,48,22
1116,22701,53573,47,23
1117,22703,53576,47,22
1118,22706,53559,47,22
1119,22695,53569,48,22
1120,22702,53548,49,22
1121,22695,53583,49,22
1122,22708,53559,48,23
1123,22698,53566,49,20
1124,22702,53561,49,23
1125,22700,53567,47,22
1126,22703,53548,47,22
1127,22694,53553,49,23
1128,22695,53547,47,22
1129,22693,53549,47,23
1130,22690,53550,49,23
1131,22691,53544,47,22
1132,22688,53550,49,21
1133,22689,53561,46,23
1134,22696,53567,47,21
1135,22698,53535,49,22
1136,22684,53559,48,22
1137,22695,53524,50,21
1138,22682,53541,49,22
1139,22695,53521,50,22
1140,22686,53533,49,22
1141,22692,53510,49,23
1142,22682,53521,47,21
1143,22688,53512,48,22
1144,22683,53512,48,24
1145,22686,53509,49,23
1146,22682,53506,48,24
1147,22684,53512,49,24
1148,22684,53511,49,22
1149,22684,53511,48,23
1150,22685,53509,46,23
1151,22686,53510,49,24
1152,22688,53500,48,23
1153,22686,53492,49,23
1154,22684,53484,49,23
1155,22679,53498,49,23
1156,22684,53481,49,23
1157,22678,53491,48,25
1158,22681,53472,49,23
1159,22673,53492,48,24
1160,22675,53498,47,23
1161,22677,53498,48,25
1162,22677,53491,49,24
1163,22671,53500,49,22
1164,22678,53503,49,24
1165,22678,53511,50,23
1166,22682,53499,48,24
1167,22678,53499,47,25
1168,22680,53501,47,25
1169,22680,53493,49,25
1170,22675,53495,49,23
1171,22675,53495,48,25
1172,22673,53492,48,23
1173,22670,53505,47,25
1174,22674,53504,47,24
1175,22674,53498,47,24
1176,22669,53511,47,24
1177,22677,53515,49,24
1178,22680,53504,49,23
1179,22675,53506,48,23
1180,22679,53510,49,23
1181,22680,53506,47,24
1182,22679,53500,50,24
1183,22677,53501,46,24
1184,22677,53496,47,24
1185,22674,53493,48,23
1186,22672,53497,48,24
1187,22675,53497,49,23
1188,22673,53502,49,23
1189,22676,53491,48,22
1190,22672,53499,47,23
1191,22674,53501,49,24
1192,22675,53496,50,23
1193,22673,53500,48,22
1194,22681,53492,48,23
1195,22675,53502,47,24
1196,22682,53491,49,23
1197,22677,53493,49,23
1198,22679,53492,50,25
1199,22680,53478,48,23
1200,22676,53495,50,25
1201,22680,53493,48,24
1202,22677,53491,49,23
1203,22678,53490,50,24
1204,22678,53487,50,24
1205,22675,53506,50,25
1206,22680,53501,47,23
1207,22678,53494,48,24
1208,22678,53506,50,24
1209,22680,53494,50,25
1210,22675,53519,45,25
1211,22687,53504,48,25
1212,22684,53515,48,24
1213,22687,53497,47,24
1214,22681,53505,47,25
1215,22682,53505,48,24
1216,22684,53499,49,23
1217,22681,53505,48,23
1218,22683,53502,47,23
1219,22684,53494,48,24
1220,22679,53504,48,24
1221,22683,53490,47,23
1222,22680,53495,47,22
1223,22684,53496,48,25
1224,22684,53500,49,23
1225,22688,53492,48,24
1226,22684,53505,48,23
1227,22691,53503,48,24
1228,22692,53482,48,23
1229,22681,53501,48,23
1230,22691,53484,47,25
1231,22684,53492,49,22
1232,22685,53488,48,23
1233,22682,53501,49,23
1234,22686,53481,49,22
1235,22680,53499,45,22
1236,22687,53504,48,24
1237,22689,53501,50,26
1238,22688,53499,48,25
1239,22689,53525,49,24
1240,22700,53492,46,24
1241,22686,53524,50,25
1242,22700,53502,50,24
1243,22690,53504,48,25
1244,22690,53517,46,23
1245,22693,53517,48,25
1246,22692,53509,47,24
1247,22687,53522,47,25
1248,22693,53511,48,24
1249,22689,53515,50,24
1250,22691,53520,49,24
1251,22691,53510,49,24
1252,22688,53528,46,22
1253,22697,53522,49,24
1254,22695,53512,49,23
1255,22694,53531,48,22
1256,22701,53505,48,24
1257,22693,53528,49,23
1258,22703,53508,47,22
1259,22693,53523,47,23
1260,22699,53504,48,24
1261,22690,53509,47,22
1262,22695,53519,47,24
1263,22696,53516,47,22
1264,22694,53518,49,22
1265,22695,53532,46,23
1266,22698,53530,48,24
1267,22699,53539,48,23
1268,22703,53530,48,23
1269,22699,53539,46,23
1270,22701,53538,48,23
1271,22699,53553,49,22
1272,22705,53531,47,24
1273,22696,53546,49,23
1274,22703,53551,47,24
1275,22705,53539,48,23
1276,22699,53538,48,23
1277,22699,53565,49,22
1278,22708,53568,46,22
1279,22705,53549,48,21
1280,22700,53566,48,22
1281,22706,53549,47,24
1282,22700,53565,48,23
1283,22706,53561,46,23
1284,22706,53565,48,23
1285,22707,53564,49,23
1286,22706,53563,45,22
1287,22707,53567,49,20
1288,22709,53562,47,22
1289,22706,53572,48,21
1290,22711,53555,49,21
1291,22704,53573,49,23
1292,22710,53554,48,22
1293,22701,53575,49,22
1294,22709,53563,49,23
1295,22704,53577,47,22
1296,22711,53571,48,22
1297,22707,53581,48,22
1298,22711,53574,49,23
1299,22708,53582,47,22
1300,22714,53576,49,21
1301,22710,53577,48,23
1302,22711,53576,50,22
1303,22711,53570,47,21
1304,22707,53576,48,22
1305,22710,53578,48,23
1306,22708,53567,49,23
1307,22702,53579,50,24
1308,22707,53574,50,22
1309,22703,53584,49,23
1310,22706,53585,49,24
1311,22707,53586,49,23
1312,22706,53603,47,22
1313,22713,53600,49,23
1314,22710,53595,48,23
1315,22709,53603,49,25
1316,22711,53593,48,25
1317,22710,53598,49,25
1318,22711,53599,50,23
1319,22710,53593,49,24
1320,22702,53604,48,23
1321,22705,53606,48,23
1322,22707,53612,48,22
1323,22707,53619,49,22
1324,22708,53614,49,22
1325,22706,53616,49,22
1326,22707,53625,48,25
1327,22710,53625,48,25
1328,22709,53635,49,25
1329,22715,53617,47,23
1330,22712,53609,49,23
1331,22710,53615,47,25
1332,22711,53607,47,23
1333,22709,53610,49,23
1334,22708,53607,49,23
1335,22705,53610,49,24
1336,22707,53615,48,23
1337,22707,53630,47,23
1338,22711,53635,48,21
1339,22711,53624,48,21
1340,22707,53621,49,23
1341,22707,53625,49,25
1342,22710,53625,48,24
1343,22712,53629,48,23
1344,22712,53621,49,24
1345,22712,53613,49,25
1346,22708,53629,48,24
1347,22712,53619,49,24
1348,22710,53624,48,23
1349,22712,53609,47,24
1350,22707,53622,47,23
1351,22714,53603,49,21
1352,22704,53620,47,23
1353,22710,53612,48,22
1354,22706,53634,46,22
1355,22716,53628,48,22
1356,22714,53624,49,21
1357,22712,53622,48,24
1358,22715,53614,48,21
1359,22712,53623,48,23
1360,22718,53602,49,23
1361,22711,53605,49,24
1362,22712,53602,47,22
1363,22712,53613,46,23
1364,22718,53595,47,21
1365,22710,53595,48,24
1366,22710,53595,46,23
1367,22711,53593,48,22
1368,22709,53604,48,24
1369,22712,53595,47,23
1370,22710,53607,49,22
1371,22715,53614,46,23
1372,22724,53618,49,22
1373,22725,53585,47,23
1374,22714,53597,48,25
1375,22721,53590,48,23
1376,22715,53595,48,25
1377,22718,53579,49,24
1378,22713,53593,49,25
1379,22717,53573,50,24
1380,22709,53578,47,24
1381,22710,53586,49,24
1382,22714,53580,47,23
1383,22711,53588,49,25
1384,22715,53580,49,24
1385,22713,53588,47,25
1386,22718,53584,48,24
1387,22716,53587,48,25
1388,22718,53589,46,24
1389,22722,53584,49,25
1390,22719,53569,48,24
1391,22717,53573,48,25
1392,22717,53572,48,24
1393,22718,53566,48,23
1394,22715,53578,48,23
1395,22719,53565,48,24
1396,22712,53584,49,23
1397,22720,53583,47,22
1398,22721,53571,49,24
1399,22715,53588,46,23
1400,22725,53569,48,23
1401,22717,53580,48,25
1402,22722,53577,49,23
1403,22722,53568,49,24
1404,22723,53573,50,25
1405,22726,53567,47,23
1406,22723,53563,49,24
1407,22719,53562,50,25
1408,22721,53556,49,25
1409,22720,53558,50,23
1410,22719,53563,49,25
1411,22721,53557,48,24
1412,22719,53556,48,26
1413,22718,53568,49,24
1414,22725,53569,46,23
1415,22728,53556,47,23
1416,22723,53568,48,24
1417,22731,53562,48,22
1418,22726,53559,48,23
1419,22728,53559,48,23
1420,22729,53562,50,23
1421,22729,53546,48,23
1422,22722,53564,46,24
1423,22728,53566,48,23
1424,22728,53554,48,23
1425,22720,53562,47,22
1426,22725,53559,47,24
1427,22723,53565,49,23
1428,22726,53566,49,23
1429,22727,53562,49,24
1430,22725,53566,51,25
1431,22730,53574,47,22
1432,22734,53563,47,23
1433,22729,53570,49,22
1434,22733,53562,48,23
1435,22729,53558,47,24
1436,22728,53562,47,23
1437,22729,53564,49,23
1438,22729,53550,48,23
1439,22723,53576,48,21
1440,22730,53575,50,23
1441,22731,53575,49,24
1442,22730,53569,49,24
1443,22728,53574,48,22
1444,22728,53581,48,24
1445,22732,53579,49,24
1446,22731,53574,50,24
1447,22731,53581,48,23
1448,22736,53596,48,23
1449,22741,53560,49,24
1450,22724,53586,48,22
1451,22736,53580,48,23
1452,22733,53582,49,25
1453,22733,53576,49,23
1454,22731,53582,48,25
1455,22734,53580,49,25
1456,22728,53593,47,23
1457,22737,53591,48,24
1458,22736,53574,48,23
1459,22730,53597,47,25
1460,22739,53580,50,25
1461,22735,53603,49,24
1462,22743,53589,50,24
1463,22740,53594,49,23
1464,22741,53584,49,23
1465,22737,53580,47,21
1466,22737,53576,48,23
1467,22735,53573,48,22
1468,22733,53586,49,23
1469,22739,53571,50,22
1470,22731,53590,49,24
1471,22742,53559,48,23
1472,22727,53588,50,23
1473,22740,53582,45,22
1474,22740,53581,49,23
1475,22740,53582,49,24
1476,22742,53582,47,24
1477,22741,53584,49,24
1478,22745,53569,47,23
1479,22740,53580,49,24
1480,22743,53571,50,23
1481,22739,53574,50,24
1482,22740,53585,47,25
1483,22742,53575,48,23
1484,22739,53582,48,22
1485,22742,53586,48,24
1486,22741,53586,49,22
1487,22741,53586,49,23
1488,22740,53592,48,23
1489,22740,53596,49,23
1490,22740,53603,48,24
1491,22747,53601,49,22
1492,22747,53604,49,22
1493,22749,53597,49,23
1494,22744,53612,49,24
1495,22748,53607,49,24
1496,22745,53609,48,24
1497,22745,53611,50,22
1498,22747,53614,48,22
1499,22744,53624,47,21
1500,22746,53625,47,24
1501,22745,53642,47,22
1502,22753,53628,50,22
1503,22745,53641,49,21
1504,22751,53635,49,23
1505,22750,53635,48,23
1506,22751,53635,46,22
1507,22753,53634,49,23
1508,22752,53634,48,23
1509,22752,53638,49,22
1510,22751,53638,48,23
1511,22748,53640,49,24
1512,22751,53637,50,23
1513,22748,53641,49,24
1514,22751,53642,48,24
1515,22749,53658,46,23
1516,22757,53654,48,21
1517,22758,53654,50,23
1518,22760,53648,49,23
1519,22759,53655,50,22
1520,22760,53644,48,23
1521,22760,53630,49,23
1522,22757,53625,47,23
1523,22761,53632,48,26
1524,22763,53615,49,24
1525,22754,53617,49,24
1526,22758,53607,47,24
1527,22756,53612,48,23
1528,22758,53606,50,22
1529,22756,53614,47,22
1530,22761,53603,50,22
1531,22759,53592,48,22
1532,22767,53582,47,22
1533,22768,53573,47,23
1534,22763,53579,48,24
1535,22767,53558,48,22
1536,22760,53574,47,23
1537,22770,53541,48,25
1538,22758,53552,46,23
1539,22765,53558,48,23
1540,22767,53546,49,22
1541,22763,53551,47,22
1542,22768,53533,48,23
1543,22761,53548,49,23
1544,22771,53539,50,22
1545,22766,53542,48,23
1546,22770,53538,47,23
1547,22769,53530,47,23
1548,22775,53515,48,24
1549,22768,53528,47,23
1550,22775,53515,49,25
1551,22770,53513,50,22
1552,22771,53517,49,22
1553,22772,53513,48,24
1554,22771,53524,47,23
1555,22773,53520,47,22
1556,22769,53533,49,24
1557,22775,53535,49,23
1558,22777,53532,49,23
1559,22775,53534,50,24
1560,22777,53531,50,23
1561,22777,53539,49,23
1562,22780,53519,49,23
1563,22776,53545,48,23
1564,22782,53525,47,23
1565,22775,53539,48,24
1566,22778,53529,49,24
1567,22773,53536,48,23
1568,22775,53548,49,23
1569,22776,53546,48,23
1570,22776,53552,47,22
1571,22778,53558,49,23
1572,22782,53551,49,23
1573,22776,53564,48,21
1574,22784,53558,49,22
1575,22782,53554,48,22
1576,22781,53556,48,22
1577,22784,53549,47,22
1578,22778,53557,49,24
1579,22783,53556,45,21
1580,22780,53564,47,22
1581,22779,53566,47,23
1582,22781,53559,48,23
1583,22778,53571,47,22
1584,22782,53571,48,23
1585,22782,53573,47,24
1586,22780,53598,46,23
1587,22786,53585,48,24
1588,22781,53590,47,24
1589,22782,53584,49,25
1590,22779,53590,48,23
1591,22778,53591,48,25
1592,22778,53592,49,24
1593,22781,53586,48,24
1594,22775,53592,49,25
1595,22775,53596,47,24
1596,22773,53615,47,25
1597,22778,53602,47,23
1598,22770,53607,50,25
1599,22772,53629,48,24
1600,22777,53632,51,25
1601,22775,53632,50,24
1602,22772,53640,47,23
1603,22772,53649,49,25
1604,22775,53639,49,23
1605,22768,53659,49,24
1606,22772,53650,48,23
1607,22766,53666,49,23
1608,22767,53662,48,24
1609,22765,53673,48,24
1610,22766,53675,49,23
1611,22765,53690,47,22
1612,22766,53689,48,22
1613,22763,53694,50,24
1614,22766,53700,50,23
1615,22768,53693,49,25
1616,22766,53710,48,24
1617,22769,53696,47,24
1618,22762,53715,46,23
1619,22760,53720,48,23
1620,22760,53700,48,23
1621,22752,53718,49,24
1622,22758,53701,50,24
1623,22749,53728,48,25
1624,22756,53705,52,23
1625,22748,53721,49,23
1626,22752,53722,48,23
1627,22752,53730,47,23
1628,22753,53728,48,24
1629,22754,53715,47,25
1630,22748,53721,49,24
1631,22754,53714,47,22
1632,22749,53715,49,23
1633,22748,53714,47,23
1634,22748,53711,47,21
1635,22742,53713,47,23
1636,22742,53703,49,23
1637,22737,53724,48,23
1638,22744,53701,47,22
1639,22734,53705,47,22
1640,22735,53707,49,23
1641,22740,53698,47,23
1642,22738,53719,48,24
1643,22745,53683,47,22
1644,22737,53684,47,22
1645,22734,53686,47,24
1646,22736,53676,48,24
1647,22731,53689,50,23
1648,22736,53667,48,25
1649,22726,53676,50,24
1650,22733,53666,46,22
1651,22728,53665,48,24
1652,22728,53663,47,25
1653,22722,53656,48,25
1654,22722,53667,49,24
1655,22728,53652,48,23
1656,22719,53674,49,25
1657,22729,53665,49,24
1658,22723,53676,49,24
1659,22731,53655,45,25
1660,22724,53643,47,23
1661,22718,53645,46,24
1662,22719,53653,47,23
1663,22722,53632,48,24
1664,22712,53638,48,23
1665,22714,53642,48,24
1666,22716,53630,47,23
1667,22716,53617,47,23
1668,22708,53627,49,23
1669,22714,53625,47,23
1670,22712,53636,48,22
1671,22717,53621,50,23
1672,22713,53619,48,24
1673,22710,53610,49,23
1674,22713,53615,50,24
1675,22713,53598,46,24
1676,22708,53591,46,24
1677,22705,53586,47,23
1678,22702,53593,49,23
1679,22703,53590,48,22
1680,22701,53598,48,24
1681,22706,53577,50,24
1682,22696,53576,48,24
1683,22704,53579,47,24
1684,22707,53562,47,23
1685,22700,53580,48,23
1686,22708,53547,49,23
1687,22696,53578,49,23
1688,22709,53545,47,24
1689,22697,53548,48,24
1690,22700,53545,49,25
1691,22699,53549,48,24
1692,22700,53538,46,24
1693,22694,53549,48,24
1694,22698,53547,48,25
1695,22699,53542,49,25
1696,22696,53523,48,23
1697,22691,53548,49,24
1698,22702,53522,46,24
1699,22698,53510,48,25
1700,22692,53528,48,24
1701,22701,53511,49,23
1702,22696,53514,49,25
1703,22697,53514,48,24
1704,22697,53507,48,24
1705,22695,53502,48,22
1706,22692,53504,50,23
1707,22693,53507,45,23
1708,22694,53507,48,23
1709,22697,53498,48,23
1710,22693,53502,50,24
1711,22697,53493,49,24
1712,22695,53498,50,24
1713,22700,53485,50,23
1714,22695,53477,47,25
1715,22696,53478,48,25
1716,22697,53461,48,25
1717,22693,53468,50,27
1718,22695,53466,49,25
1719,22692,53461,49,25
1720,22691,53468,49,25
1721,22694,53466,48,24
1722,22691,53467,50,25
1723,22692,53474,46,24
1724,22698,53467,46,24
1725,22695,53466,48,25
1726,22697,53474,47,25
1727,22698,53464,49,24
1728,22694,53469,49,23
1729,22701,53457,49,25
1730,22693,53467,46,23
1731,22698,53469,50,24
1732,22699,53451,48,23
1733,22691,53466,48,24
1734,22696,53445,51,27
1735,22690,53465,48,26
1736,22697,53451,47,25
1737,22691,53463,49,25
1738,22697,53455,50,24
1739,22692,53454,47,26
1740,22699,53450,49,25
1741,22701,53432,47,24
1742,22695,53446,48,25
1743,22704,53435,47,24
1744,22700,53421,48,24
1745,22694,53423,48,22
1746,22695,53423,48,23
1747,22697,53420,48,24
1748,22693,53427,48,24
1749,22698,53424,48,24
1750,22696,53427,48,25
1751,22696,53415,49,23
1752,22695,53439,49,26
1753,22705,53421,49,24
1754,22698,53433,50,24
1755,22701,53426,46,22
1756,22706,53408,49,24
1757,22701,53414,49,24
1758,22703,53411,47,22
1759,22704,53407,49,23
1760,22701,53406,49,24
1761,22698,53405,47,24
1762,22700,53402,46,22
1763,22697,53409,48,24
1764,22702,53407,48,22
1765,22699,53420,49,23
1766,22705,53405,51,22
1767,22700,53424,49,23
1768,22710,53402,50,24
1769,22703,53423,49,22
1770,22714,53404,49,23
1771,22708,53387,46,23
1772,22706,53392,47,22
1773,22710,53384,48,22
1774,22704,53391,48,22
1775,22705,53389,49,22
1776,22702,53394,47,22
1777,22707,53382,47,24
1778,22702,53395,48,23
1779,22708,53399,51,26
1780,22708,53394,49,23
1781,22709,53383,50,25
1782,22709,53393,49,25
1783,22712,53390,50,24
1784,22713,53379,48,24
1785,22711,53374,49,25
1786,22710,53377,48,25
1787,22711,53378,49,23
1788,22710,53381,49,23
1789,22711,53384,49,23
1790,22710,53382,49,23
1791,22710,53392,50,24
1792,22711,53385,49,22
1793,22709,53387,49,23
1794,22711,53397,48,23
1795,22721,53395,49,24
1796,22718,53381,48,22
1797,22716,53386,48,23
1798,22717,53373,49,25
1799,22713,53382,49,24
1800,22717,53368,48,23
1801,22712,53377,47,23
1802,22716,53374,46,24
1803,22713,53370,49,22
1804,22712,53379,47,23
1805,22714,53374,48,23
1806,22712,53371,49,24
1807,22715,53377,47,25
1808,22716,53377,49,24
1809,22716,53385,49,25
1810,22718,53375,47,23
1811,22720,53375,49,23
1812,22719,53379,48,23
1813,22724,53357,48,22
1814,22714,53373,46,22
1815,22725,53349,47,22
1816,22713,53368,50,22
1817,22721,53358,48,24
1818,22718,53367,45,24
1819,22725,53353,48,22
1820,22719,53361,48,24
1821,22725,53345,48,25
1822,22722,53340,48,24
1823,22721,53340,49,22
1824,22724,53342,48,24
1825,22728,53336,49,23
1826,22726,53337,46,23
1827,22725,53327,49,23
1828,22721,53328,49,25
1829,22725,53320,51,23
1830,22724,53320,50,24
1831,22722,53328,48,24
1832,22724,53329,50,25
1833,22722,53331,49,24
1834,22722,53343,48,22
1835,22725,53350,48,23
1836,22729,53343,48,22
1837,22727,53335,46,24
1838,22728,53334,48,21
1839,22728,53336,49,22
1840,22729,53330,49,24
1841,22726,53326,48,23
1842,22728,53323,46,23
1843,22726,53315,46,22
1844,22724,53319,48,22
1845,22725,53311,49,23
1846,22722,53316,48,22
1847,22725,53307,47,21
1848,22720,53324,48,22
1849,22726,53312,48,23
1850,22722,53332,48,21
1851,22732,53319,48,22
1852,22725,53338,49,22
1853,22734,53304,49,22
1854,22721,53326,49,23
1855,22731,53315,48,22
1856,22725,53328,48,22
1857,22730,53304,50,23
1858,22718,53331,46,24
1859,22727,53340,49,22
1860,22730,53318,49,22
1861,22721,53334,48,23
1862,22729,53321,49,23
1863,22721,53343,50,24
1864,22731,53330,50,24
1865,22727,53337,48,24
1866,22731,53324,47,24
1867,22730,53326,47,23
1868,22730,53327,47,22
1869,22728,53319,48,23
1870,22724,53326,48,24
1871,22728,53323,48,25
1872,22726,53323,48,25
1873,22722,53323,48,24
1874,22722,53332,47,25
1875,22726,53332,47,23
1876,22726,53325,50,23
1877,22723,53330,49,24
1878,22729,53325,49,26
1879,22729,53327,48,24
1880,22730,53330,49,25
1881,22732,53308,48,24
1882,22726,53319,46,24
1883,22735,53285,47,25
1884,22718,53308,47,21
1885,22733,53285,47,24
1886,22722,53303,50,25
1887,22726,53301,46,24
1888,22725,53303,49,24
1889,22725,53299,49,23
1890,22724,53301,47,23
1891,22730,53310,49,23
1892,22733,53293,48,23
1893,22725,53297,49,24
1894,22731,53297,50,25
1895,22732,53281,49,23
1896,22725,53290,47,21
1897,22730,53276,47,23
1898,22727,53284,46,22
1899,22729,53278,48,21
1900,22727,53274,49,23
1901,22725,53282,48,23
1902,22729,53273,48,23
1903,22725,53285,49,24
1904,22730,53272,50,23
1905,22726,53265,48,23
1906,22727,53264,47,21
1907,22734,53260,48,22
1908,22732,53258,48,23
1909,22731,53249,49,23
1910,22731,53247,49,24
1911,22728,53257,49,22
1912,22733,53249,49,23
1913,22727,53255,49,24
1914,22733,53243,46,25
1915,22726,53237,47,24
1916,22726,53256,46,22
1917,22734,53240,48,25
1918,22728,53244,48,24
1919,22731,53250,48,23
1920,22733,53250,49,24
1921,22735,53251,47,23
1922,22735,53246,48,24
1923,22734,53244,47,25
1924,22736,53235,47,23
1925,22734,53237,47,24
1926,22735,53236,48,23
1927,22734,53240,49,24
1928,22736,53224,48,23
1929,22730,53238,46,24
1930,22738,53232,45,23
1931,22737,53237,47,24
1932,22738,53218,46,23
1933,22732,53237,48,25
1934,22742,53217,47,25
1935,22737,53213,47,23
1936,22740,53206,49,25
1937,22739,53198,48,26
1938,22738,53196,44,24
1939,22741,53196,49,24
1940,22740,53175,48,25
1941,22732,53189,50,25
1942,22741,53179,48,26
1943,22734,53190,48,24
1944,22738,53183,49,25
1945,22736,53196,49,25
1946,22743,53195,47,25
1947,22742,53194,47,25
1948,22743,53202,48,24
1949,22748,53190,49,24
1950,22744,53192,48,24
1951,22745,53179,47,25
1952,22740,53189,48,25
1953,22746,53186,50,25
1954,22745,53187,48,25
1955,22743,53182,48,26
1956,22739,53189,50,23
1957,22741,53200,49,23
1958,22744,53183,48,24
1959,22739,53198,48,24
1960,22743,53182,48,24
1961,22739,53194,49,23
1962,22745,53201,49,25
1963,22748,53199,46,24
1964,22748,53203,47,23
1965,22748,53207,49,23
1966,22747,53193,50,24
1967,22745,53205,49,24
1968,22748,53199,49,24
1969,22744,53204,49,25
1970,22747,53196,47,24
1971,22742,53200,49,24
1972,22745,53212,48,25
1973,22746,53208,48,23
1974,22747,53207,51,23
1975,22750,53197,49,22
1976,22748,53191,47,22
1977,22748,53195,47,22
1978,22751,53203,45,22
1979,22756,53186,46,24
1980,22749,53178,47,24
1981,22749,53186,48,24
1982,22749,53178,47,23
1983,22746,53191,49,24
1984,22749,53180,49,23
1985,22745,53199,48,23
1986,22752,53196,45,22
1987,22754,53196,48,25
1988,22754,53183,47,23
1989,22750,53199,50,23
1990,22757,53191,50,23
1991,22754,53197,50,23
1992,22756,53196,49,25
1993,22756,53194,48,23
1994,22754,53206,47,24
1995,22756,53206,47,22
1996,22755,53206,48,23
1997,22752,53215,46,25
1998,22755,53216,48,23
1999,22752,53220,49,24
2000,22752,53229,47,26
2001,22756,53227,49,23
2002,22755,53242,47,22
2003,22760,53248,47,24
2004,22761,53233,48,24
2005,22756,53247,48,23
2006,22759,53238,48,24
2007,22757,53243,49,24
2008,22759,53239,46,24
2009,22758,53244,47,25
2010,22758,53260,47,26
2011,22761,53248,48,25
2012,22757,53261,48,24
2013,22758,53264,48,24
2014,22760,53267,49,25
2015,22762,53267,49,25
2016,22761,53280,49,25
2017,22767,53272,48,23
2018,22762,53293,47,23
2019,22773,53284,46,23
2020,22772,53259,46,24
2021,22762,53285,48,24
2022,22771,53254,48,24
2023,22759,53278,49,24
2024,22768,53262,49,23
2025,22762,53280,49,23
2026,22765,53274,46,22
2027,22765,53281,46,23
2028,22769,53272,49,23
2029,22767,53278,48,21
2030,22774,53272,49,22
2031,22769,53281,50,22
2032,22774,53272,47,22
2033,22773,53268,48,21
2034,22772,53266,47,23
2035,22778,53262,48,21
2036,22777,53252,48,22
2037,22773,53245,48,23
2038,22772,53243,49,23
2039,22774,53240,49,22
2040,22773,53232,48,22
2041,22775,53227,48,23
2042,22773,53245,45,22
2043,22782,53225,47,24
2044,22776,53238,47,22
2045,22782,53224,48,24
2046,22779,53229,49,24
2047,22783,53222,49,22
2048,22781,53214,48,22
2049,22779,53227,47,23
2050,22785,53240,46,23
2051,22787,53222,49,22
2052,22779,53220,48,23
2053,22778,53234,48,22
2054,22783,53216,49,24
2055,22776,53237,49,25
2056,22784,53220,49,23
2057,22779,53228,49,22
2058,22782,53235,47,25
2059,22785,53255,47,24
2060,22793,53225,46,23
2061,22783,53252,49,21
2062,22793,53220,48,23
2063,22782,53233,49,24
2064,22788,53229,49,25
2065,22784,53236,50,23
2066,22786,53234,46,23
2067,22785,53232,48,22
2068,22783,53241,48,24
2069,22787,53243,48,24
2070,22788,53236,50,25
2071,22786,53244,48,23
2072,22789,53243,49,23
2073,22790,53235,49,25
2074,22787,53242,47,22
2075,22795,53236,48,23
2076,22794,53233,47,24
2077,22793,53225,47,23
2078,22793,53223,48,24
2079,22791,53231,49,25
2080,22794,53218,48,24
2081,22789,53230,50,25
2082,22794,53234,46,23
2083,22794,53231,47,24
2084,22794,53220,49,24
2085,22793,53230,49,24
2086,22797,53220,48,23
2087,22795,53219,47,22
2088,22798,53219,48,23
2089,22800,53215,48,24
2090,22799,53223,46,23
2091,22807,53206,49,24
2092,22798,53213,47,25
2093,22800,53216,48,24
2094,22798,53216,50,23
2095,22797,53213,48,23
2096,22797,53212,48,23
2097,22795,53217,49,23
2098,22799,53235,46,24
2099,22805,53226,48,23
2100,22802,53228,50,24
2101,22803,53228,47,24
2102,22804,53225,49,24
2103,22804,53225,49,24
2104,22803,53220,48,23
2105,22801,53220,48,23
2106,22804,53227,46,23
2107,22802,53232,48,24
2108,22804,53230,48,23
2109,22800,53243,48,22
2110,22803,53233,48,22
2111,22797,53249,49,23
2112,22804,53241,47,24
2113,22800,53265,49,24
2114,22811,53276,48,23
2115,22814,53272,47,24
2116,22812,53254,47,23
2117,22805,53274,48,23
2118,22812,53263,48,23
2119,22806,53256,48,24
2120,22804,53269,47,23
2121,22809,53249,49,25
2122,22798,53287,47,24
2123,22805,53285,48,25
2124,22800,53296,47,25
2125,22804,53291,48,24
2126,22800,53283,49,25
2127,22798,53299,49,24
2128,22806,53283,49,24
2129,22798,53312,47,24
2130,22808,53290,46,24
2131,22799,53291,48,23
2132,22799,53300,49,24
2133,22798,53306,48,22
2134,22800,53290,49,23
2135,22794,53305,49,25
2136,22801,53282,47,23
2137,22791,53318,49,23
2138,22804,53299,44,22
2139,22794,53310,46,22
2140,22798,53305,47,23
2141,22795,53306,47,23
2142,22793,53315,48,24
2143,22795,53306,49,21
2144,22795,53306,51,23
2145,22794,53305,48,22
2146,22795,53303,46,23
2147,22791,53312,47,23
2148,22791,53299,50,24
2149,22785,53310,50,23
2150,22789,53300,49,22
2151,22780,53328,48,22
2152,22793,53301,49,22
2153,22779,53331,48,24
2154,22788,53331,46,22
2155,22789,53331,47,24
2156,22784,53324,49,23
2157,22780,53331,48,23
2158,22783,53311,48,22
2159,22777,53330,47,24
2160,22784,53308,48,22
2161,22776,53313,49,25
2162,22776,53322,46,23
2163,22773,53316,49,22
2164,22770,53322,48,22
2165,22771,53316,48,24
2166,22769,53323,49,24
2167,22771,53318,48,24
2168,22767,53324,49,25
2169,22770,53324,49,24
2170,22771,53317,46,24
2171,22771,53299,47,24
2172,22764,53304,47,24
2173,22770,53294,49,22
2174,22767,53293,50,25
2175,22765,53285,47,26
2176,22762,53286,48,25
2177,22763,53278,48,24
2178,22760,53277,48,23
2179,22759,53272,47,23
2180,22757,53277,48,25
2181,22759,53267,50,24
2182,22753,53274,49,24
2183,22758,53260,50,22
2184,22755,53274,48,24
2185,22762,53258,49,24
2186,22757,53248,46,25
2187,22760,53233,48,24
2188,22750,53235,48,23
2189,22752,53222,47,24
2190,22748,53212,49,25
2191,22748,53215,48,23
2192,22750,53203,48,24
2193,22743,53210,48,26
2194,22746,53211,46,24
2195,22751,53211,48,25
2196,22749,53187,48,25
2197,22741,53208,49,25
2198,22753,53181,47,27
2199,22741,53183,49,26
2200,22745,53175,47,26
2201,22743,53178,48,24
2202,22747,53154,46,25
2203,22738,53163,45,25
2204,22743,53146,48,25
2205,22735,53146,49,22
2206,22737,53159,48,25
2207,22741,53141,49,25
2208,22732,53156,48,24
2209,22737,53134,48,25
2210,22731,53160,47,25
2211,22743,53170,48,24
2212,22748,53139,50,24
2213,22735,53159,49,25
2214,22745,53142,50,22
2215,22738,53138,49,23
2216,22738,53131,49,23
2217,22734,53139,48,23
2218,22733,53129,46,23
2219,22733,53127,48,23
2220,22733,53127,47,24
2221,22732,53132,47,23
2222,22733,53133,48,25
2223,22733,53138,47,24
2224,22733,53127,49,25
2225,22730,53129,49,24
2226,22733,53123,48,23
2227,22733,53121,48,23
2228,22731,53116,48,23
2229,22731,53124,49,23
2230,22735,53109,49,22
2231,22727,53116,48,24
2232,22730,53111,48,24
2233,22728,53113,49,24
2234,22728,53118,46,23
2235,22729,53114,47,23
2236,22726,53110,48,22
2237,22726,53125,47,22
2238,22731,53099,49,23
2239,22721,53117,48,22
2240,22732,53104,49,22
2241,22727,53113,50,24
2242,22732,53097,46,23
2243,22728,53101,47,22
2244,22727,53089,48,23
2245,22724,53091,49,22
2246,22727,53096,50,22
2247,22732,53071,48,22
2248,22722,53088,49,22
2249,22729,53068,48,23
2250,22724,53081,48,24
2251,22732,53070,47,22
2252,22727,53072,48,22
2253,22731,53076,50,23
2254,22733,53058,50,21
2255,22730,53071,49,24
2256,22734,53048,49,23
2257,22723,53065,49,24
2258,22731,53056,47,23
2259,22728,53049,47,23
2260,22724,53050,48,24
2261,22728,53043,49,23
2262,22726,53050,50,24
2263,22726,53040,48,24
2264,22725,53047,49,22
2265,22728,53043,48,24
2266,22726,53051,46,23
2267,22731,53041,48,24
2268,22731,53041,48,24
2269,22731,53038,49,23
2270,22730,53024,48,25
2271,22727,53037,48,23
2272,22734,53025,49,24
2273,22727,53022,49,23
2274,22727,53031,47,23
2275,22733,53019,47,23
2276,22726,53021,48,25
2277,22729,53025,49,22
2278,22728,53019,49,23
2279,22727,53024,48,22
2280,22726,53034,48,23
2281,22731,53030,49,24
2282,22731,53030,46,22
2283,22735,53029,48,23
2284,22733,53027,49,23
2285,22734,53030,48,24
2286,22737,53001,48,23
2287,22726,53018,48,23
2288,22735,53006,47,24
2289,22732,53004,49,24
2290,22730,53018,46,24
2291,22739,53006,47,22
2292,22733,53008,48,24
2293,22735,53010,48,22
2294,22740,53004,48,24
2295,22736,52993,49,24
2296,22736,53009,50,24
2297,22743,52980,50,24
2298,22733,53002,47,24
2299,22746,52985,47,23
2300,22738,52997,48,24
2301,22742,52977,47,24
2302,22735,52993,48,25
2303,22741,52971,50,24
2304,22733,52983,52,25
2305,22742,52985,49,24
2306,22741,52993,46,23
2307,22750,52982,48,24
2308,22746,52981,48,23
2309,22746,52977,48,22
2310,22746,52976,48,24
2311,22747,52973,50,23
2312,22745,52969,48,24
2313,22747,52969,48,23
2314,22746,52972,45,22
2315,22751,52973,47,24
2316,22747,52965,48,21
2317,22744,52977,49,23
2318,22748,52965,49,23
2319,22744,52972,49,24
2320,22746,52976,48,24
2321,22750,52964,49,23
2322,22745,52975,49,22
2323,22756,52978,49,24
2324,22758,52959,49,24
2325,22750,52984,49,23
2326,22761,52958,49,24
2327,22748,52977,49,24
2328,22758,52956,50,24
2329,22749,52972,49,25
2330,22757,52972,47,23
2331,22754,52963,46,23
2332,22750,52986,47,25
2333,22757,52976,48,23
2334,22753,52994,48,23
2335,22761,52978,49,22
2336,22754,52988,48,24
2337,22758,52970,49,22
2338,22754,52996,45,22
2339,22768,52991,48,23
2340,22761,52966,48,22
2341,22753,52989,48,23
2342,22762,52973,49,25
2343,22755,52983,49,24
2344,22758,52976,49,22
2345,22751,52997,49,24
2346,22759,52996,47,24
2347,22756,53002,47,23
2348,22759,52995,48,25
2349,22755,53012,48,23
2350,22760,53005,48,25
2351,22759,53018,49,23
2352,22763,53003,50,23
2353,22757,53027,49,21
2354,22766,53026,47,23
2355,22762,53024,50,25
2356,22761,53022,49,25
2357,22758,53024,48,24
2358,22756,53032,49,24
2359,22757,53039,50,25
2360,22756,53042,48,23
2361,22756,53048,47,24
2362,22756,53046,45,24
2363,22759,53047,47,23
2364,22758,53068,48,23
2365,22767,53039,48,23
2366,22759,53055,49,24
2367,22764,53038,48,23
2368,22760,53044,48,24
2369,22761,53044,49,23
2370,22760,53036,46,21
2371,22757,53035,47,23
2372,22755,53045,49,23
2373,22761,53033,49,23
2374,22754,53050,48,22
2375,22761,53040,49,21
2376,22756,53053,48,23
2377,22762,53036,48,23
2378,22754,53038,47,22
2379,22763,53037,48,22
2380,22764,53031,48,23
2381,22763,53027,49,23
2382,22763,53019,48,23
2383,22762,53015,48,23
2384,22759,53021,48,23
2385,22762,53006,47,24
2386,22758,53018,48,23
2387,22760,53018,48,23
2388,22760,53012,47,23
2389,22758,53026,48,22
2390,22765,53017,48,23
2391,22761,53021,49,22
2392,22763,53015,49,22
2393,22761,53025,49,23
2394,22767,53005,46,22
2395,22761,53029,47,22
2396,22771,53007,48,22
2397,22762,53007,49,22
2398,22761,53007,48,23
2399,22762,53012,47,21
2400,22761,53005,48,23
2401,22759,53012,48,23
2402,22761,53031,46,23
2403,22768,53028,48,21
2404,22766,53011,48,23
2405,22763,53017,48,21
2406,22766,53008,48,21
2407,22762,53025,49,23
2408,22769,53005,47,23
2409,22762,53016,48,24
2410,22770,52994,47,23
2411,22762,52994,46,20
2412,22765,52992,46,23
2413,22762,52998,49,24
2414,22766,52988,48,23
2415,22760,52991,48,23
2416,22761,52984,49,23
2417,22759,52988,48,22
2418,22763,53001,47,22
2419,22771,52992,47,24
2420,22769,52985,48,23
2421,22769,52979,49,25
2422,22767,52980,48,23
2423,22766,52975,48,25
2424,22768,52976,49,26
2425,22766,52981,48,23
2426,22768,52982,45,24
2427,22765,52984,47,23
2428,22764,52990,48,24
2429,22767,52986,49,23
2430,22764,52994,48,23
2431,22766,52992,48,24
2432,22765,52994,49,23
2433,22765,53000,49,24
2434,22765,53018,47,23
2435,22775,53013,48,23
2436,22773,53001,49,23
2437,22767,53004,48,23
2438,22768,52997,49,23
2439,22768,52996,48,23
2440,22762,53004,48,23
2441,22767,52991,48,22
2442,22761,53004,45,24
2443,22764,53002,47,23
2444,22764,53009,49,23
2445,22769,52992,48,23
2446,22765,52991,48,24
2447,22767,52986,49,24
2448,22767,52989,49,25
2449,22771,52988,49,24
2450,22768,52970,45,23
2451,22765,52985,47,22
2452,22768,52977,49,23
2453,22764,52989,49,22
2454,22770,52979,47,21
2455,22766,52986,48,23
2456,22767,52983,48,23
2457,22766,52992,50,24
2458,22769,52999,45,22
2459,22769,53001,46,22
2460,22771,53013,48,23
2461,22775,52994,47,24
2462,22766,53010,47,23
2463,22772,52993,47,22
2464,22768,53006,48,23
2465,22774,52988,47,22
2466,22768,52995,46,23
2467,22772,53004,49,24
2468,22776,52979,48,25
2469,22763,53000,48,23
2470,22772,52979,49,23
2471,22762,53004,47,25
2472,22771,52993,50,25
2473,22766,52998,48,25
2474,22770,52996,45,23
2475,22770,53015,48,26
2476,22780,52990,48,25
2477,22771,53004,48,24
2478,22775,52983,47,25
2479,22768,53003,48,24
2480,22780,52985,47,24
2481,22771,52991,49,26
2482,22772,52993,47,23
2483,22772,52997,48,23
2484,22775,52996,48,25
2485,22771,53001,47,25
2486,22773,53005,49,24
2487,22775,53008,47,24
2488,22775,53006,49,23
2489,22774,53013,47,23
2490,22779,53013,46,23
2491,22780,53009,46,23
2492,22779,53009,47,23
2493,22779,53010,47,24
2494,22781,52988,48,22
2495,22773,52998,47,23
2496,22780,52993,48,23
2497,22776,53004,48,22
2498,22779,53009,48,22
2499,22780,52991,48,23
2500,22770,53010,49,24
2501,22780,53006,48,24
2502,22778,53003,48,24
2503,22779,53009,49,23
2504,22782,53014,48,24
2505,22787,53014,48,24
2506,22787,52998,47,23
2507,22784,53004,47,23
2508,22785,52995,47,23
2509,22781,53010,49,23
2510,22784,53003,49,24
2511,22780,53008,48,24
2512,22783,53003,49,25
2513,22780,53006,49,25
2514,22784,53015,46,22
2515,22788,53008,47,22
2516,22786,53005,48,24
2517,22787,53005,49,24
2518,22786,53012,49,24
2519,22790,53011,49,23
2520,22790,52996,50,24
2521,22786,52998,47,23
2522,22790,53002,47,24
2523,22791,52999,48,25
2524,22788,52988,49,22
2525,22782,53003,49,23
2526,22789,52997,48,23
2527,22784,53019,49,24
2528,22792,53005,49,24
2529,22787,53013,50,24
2530,22789,53028,49,24
2531,22794,53013,49,24
2532,22788,53026,49,24
2533,22794,53015,48,25
2534,22791,53020,48,25
2535,22793,53023,49,25
2536,22792,53021,50,25
2537,22789,53025,49,26
2538,22791,53043,47,25
2539,22792,53033,47,24
2540,22786,53044,48,27
2541,22789,53049,48,26
2542,22791,53053,48,25
2543,22792,53054,49,28
2544,22792,53062,48,22
2545,22796,53064,48,24
2546,22795,53078,46,23
2547,22800,53082,48,24
2548,22799,53067,48,23
2549,22793,53072,47,22
2550,22795,53067,48,24
2551,22792,53072,47,23
2552,22796,53074,49,24
2553,22795,53072,49,23
2554,22793,53083,47,22
2555,22801,53071,49,22
2556,22796,53085,46,23
2557,22802,53070,47,22
2558,22797,53090,49,22
2559,22803,53074,50,23
2560,22799,53082,49,23
2561,22804,53067,49,23
2562,22802,53073,47,21
2563,22806,53072,48,21
2564,22803,53046,49,22
2565,22797,53054,49,21
2566,22801,53053,50,23
2567,22800,53056,49,22
2568,22800,53057,47,22
2569,22800,53064,48,24
2570,22805,53057,46,23
2571,22805,53059,46,22
2572,22809,53051,47,23
2573,22807,53053,48,24
2574,22810,53048,49,24
2575,22806,53063,48,22
2576,22814,53038,47,23
2577,22804,53065,48,22
2578,22814,53056,46,22
2579,22810,53048,47,22
2580,22806,53062,47,23
2581,22808,53062,48,24
2582,22805,53081,48,23
2583,22814,53056,49,23
2584,22802,53088,48,23
2585,22816,53061,49,22
2586,22805,53092,47,23
2587,22817,53088,48,22
2588,22816,53089,46,22
2589,22813,53088,47,23
2590,22815,53099,49,22
2591,22815,53095,49,22
2592,22813,53099,49,24
2593,22813,53099,47,23
2594,22810,53107,47,24
2595,22815,53110,49,25
2596,22816,53104,48,24
2597,22809,53116,48,23
2598,22815,53111,48,23
2599,22813,53125,48,24
2600,22819,53120,48,23
2601,22814,53131,48,23
2602,22817,53126,47,23
2603,22820,53139,47,23
2604,22823,53122,48,22
2605,22815,53133,47,24
2606,22820,53134,47,22
2607,22820,53131,47,25
2608,22819,53128,47,25
2609,22819,53119,48,23
2610,22814,53136,46,22
2611,22819,53142,48,20
2612,22821,53137,48,23
2613,22820,53141,48,22
2614,22823,53138,48,22
2615,22824,53140,49,23
2616,22826,53133,48,25
2617,22826,53137,46,24
2618,22828,53135,45,24
2619,22830,53124,46,24
2620,22825,53131,47,24
2621,22827,53122,49,24
2622,22819,53119,47,24
2623,22821,53135,49,23
2624,22825,53127,48,24
2625,22819,53133,47,25
2626,22824,53140,47,23
2627,22828,53139,49,23
2628,22827,53148,49,23
2629,22830,53144,48,23
2630,22830,53149,47,25
2631,22832,53139,48,24
2632,22828,53150,49,24
2633,22831,53138,49,24
2634,22826,53167,47,25
2635,22833,53145,46,25
2636,22820,53168,48,24
2637,22831,53151,48,25
2638,22820,53173,48,23
2639,22830,53167,49,24
2640,22825,53172,48,24
2641,22826,53183,46,23
2642,22828,53192,47,23
2643,22826,53206,46,24
2644,22831,53203,48,27
2645,22827,53201,47,25
2646,22825,53212,50,24
2647,22826,53205,48,25
2648,22821,53229,51,24
2649,22830,53211,48,24
2650,22820,53247,46,24
2651,22824,53227,47,24
2652,22817,53258,48,23
2653,22824,53260,50,23
2654,22823,53257,49,23
2655,22821,53255,49,24
2656,22820,53265,48,25
2657,22825,53257,48,24
2658,22819,53277,48,22
2659,22825,53275,49,24
2660,22824,53265,47,23
2661,22818,53280,48,25
2662,22819,53269,49,25
2663,22814,53289,49,24
2664,22821,53275,49,24
2665,22812,53293,48,25
2666,22818,53307,46,23
2667,22813,53319,46,24
2668,22818,53313,48,23
2669,22814,53315,48,22
2670,22815,53320,47,22
2671,22818,53303,48,23
2672,22813,53330,49,23
2673,22821,53301,49,24
2674,22809,53324,46,22
2675,22811,53326,48,23
2676,22812,53313,48,22
2677,22802,53326,50,22
2678,22805,53325,48,23
2679,22799,53331,48,23
2680,22804,53323,49,23
2681,22798,53345,47,23
2682,22804,53345,47,21
2683,22799,53361,48,22
2684,22801,53355,50,23
2685,22800,53365,46,22
2686,22804,53355,48,23
2687,22797,53358,48,23
2688,22798,53348,49,22
2689,22791,53371,47,25
2690,22799,53356,45,24
2691,22794,53350,48,22
2692,22788,53359,48,23
2693,22790,53353,49,24
2694,22783,53362,50,23
2695,22789,53351,48,21
2696,22783,53364,49,24
2697,22788,53354,49,23
2698,22786,53351,46,24
2699,22786,53360,47,24
2700,22791,53336,47,24
2701,22781,53348,49,23
2702,22783,53338,47,22
2703,22780,53337,48,23
2704,22779,53344,49,22
2705,22784,53315,50,21
2706,22771,53325,47,21
2707,22778,53328,48,21
2708,22780,53309,47,23
2709,22773,53313,49,23
2710,22776,53318,50,20
2711,22778,53308,48,22
2712,22776,53309,49,22
2713,22776,53307,49,22
2714,22779,53299,45,22
2715,22775,53282,47,22
2716,22769,53299,47,23
2717,22778,53279,49,24
2718,22768,53275,47,24
2719,22766,53278,48,23
2720,22767,53274,46,24
2721,22764,53267,48,24
2722,22759,53288,47,24
2723,22770,53290,48,24
2724,22771,53261,48,24
2725,22758,53295,48,25
2726,22771,53272,49,24
2727,22761,53296,48,24
2728,22770,53259,49,25
2729,22757,53289,49,24
2730,22768,53256,46,23
2731,22758,53271,47,22
2732,22763,53264,49,23
2733,22755,53275,48,25
2734,22759,53272,48,22
2735,22756,53272,48,22
2736,22756,53280,49,23
2737,22758,53269,48,24
2738,22752,53292,47,23
2739,22762,53286,49,23
2740,22762,53273,47,24
2741,22755,53284,49,22
2742,22760,53282,49,22
2743,22756,53287,49,22
2744,22757,53283,48,23
2745,22755,53278,50,22
2746,22751,53271,46,21
2747,22750,53281,46,22
2748,22755,53277,49,22
2749,22751,53272,50,23
2750,22752,53275,48,22
2751,22752,53278,47,22
2752,22755,53260,47,21
2753,22751,53268,48,22
2754,22756,53261,46,23
2755,22759,53255,49,23
2756,22755,53251,47,22
2757,22754,53254,49,23
2758,22756,53231,48,25
2759,22746,53243,47,23
2760,22752,53232,47,24
2761,22749,53233,49,25
2762,22751,53222,47,24
2763,22748,53229,47,24
2764,22751,53220,47,24
2765,22750,53224,48,24
2766,22751,53231,46,24
2767,22757,53205,48,25
2768,22749,53210,49,24
2769,22755,53205,47,24
2770,22752,53186,48,23
2771,22751,53198,48,25
2772,22755,53183,48,23
2773,22749,53183,48,23
2774,22750,53188,47,23
2775,22751,53192,49,23
2776,22753,53185,48,24
2777,22748,53211,48,24
2778,22757,53188,46,23
2779,22754,53194,48,24
2780,22757,53187,48,21
2781,22754,53202,48,24
2782,22759,53188,49,24
2783,22754,53188,47,23
2784,22754,53195,48,24
2785,22756,53196,49,23
2786,22756,53207,48,22
2787,22755,53208,48,25
2788,22754,53198,48,24
2789,22752,53207,49,22
2790,22754,53211,48,24
2791,22754,53211,48,24
2792,22752,53228,49,23
2793,22756,53225,49,26
2794,22755,53236,46,23
2795,22760,53238,46,23
2796,22759,53231,46,24
2797,22756,53239,47,22
2798,22759,53226,50,24
2799,22755,53239,48,21
2800,22762,53230,49,22
2801,22757,53236,49,23
2802,22760,53249,45,23
2803,22764,53242,48,21
2804,22760,53243,49,22
2805,22757,53247,48,22
2806,22756,53236,48,23
2807,22753,53255,48,23
2808,22762,53246,49,22
2809,22760,53247,47,24
2810,22762,53255,46,21
2811,22767,53253,48,23
2812,22766,53258,48,22
2813,22767,53247,49,22
2814,22762,53266,49,22
2815,22767,53252,49,21
2816,22759,53261,49,25
2817,22764,53252,47,24
2818,22760,53261,46,21
2819,22764,53264,48,22
2820,22766,53256,48,22
2821,22763,53267,48,21
2822,22768,53263,48,22
2823,22766,53268,48,23
2824,22771,53259,49,22
2825,22769,53274,49,22
2826,22775,53267,46,23
2827,22773,53263,48,22
2828,22772,53254,46,22
2829,22767,53267,49,24
2830,22770,53248,48,24
2831,22764,53263,49,24
2832,22768,53261,48,24
2833,22768,53268,47,24
2834,22770,53269,46,23
2835,22768,53262,48,23
2836,22768,53283,46,24
2837,22775,53270,50,22
2838,22768,53281,48,24
2839,22775,53282,48,22
2840,22772,53287,48,23
2841,22773,53289,49,24
2842,22775,53287,46,23
2843,22770,53301,46,23
2844,22776,53301,48,23
2845,22774,53291,48,22
2846,22770,53302,48,22
2847,22773,53297,48,21
2848,22771,53310,48,20
2849,22776,53298,48,22
2850,22770,53321,46,22
2851,22784,53326,47,21
2852,22785,53301,49,21
2853,22775,53311,47,22
2854,22783,53304,48,21
2855,22780,53306,48,23
2856,22782,53286,48,23
2857,22776,53305,48,24
2858,22783,53298,46,22
2859,22782,53297,48,22
2860,22781,53300,48,23
2861,22782,53296,47,22
2862,22781,53299,47,22
2863,22781,53304,49,22
2864,22784,53298,48,21
2865,22784,53307,48,24
2866,22789,53317,46,24
2867,22793,53307,48,23
2868,22790,53291,48,24
2869,22784,53296,47,23
2870,22787,53288,47,24
2871,22782,53298,47,24
2872,22787,53284,49,25
2873,22782,53301,49,23
2874,22790,53306,47,22
2875,22785,53306,48,24
2876,22787,53312,48,23
2877,22788,53302,48,24
2878,22788,53299,49,24
2879,22788,53311,50,23
2880,22793,53292,48,23
2881,22787,53303,48,24
2882,22794,53291,48,23
2883,22789,53293,49,24
2884,22790,53291,48,23
2885,22787,53298,49,23
2886,22790,53286,47,24
2887,22784,53307,49,24
2888,22794,53282,48,24
2889,22783,53321,50,24
2890,22798,53309,47,23
2891,22794,53300,47,23
2892,22791,53304,49,24
2893,22794,53303,48,22
2894,22793,53300,48,23
2895,22795,53296,49,23
2896,22793,53298,50,23
2897,22795,53291,49,24
2898,22794,53289,46,22
2899,22793,53280,48,22
2900,22790,53288,48,23
2901,22792,53285,48,24
2902,22791,53280,49,22
2903,22791,53289,49,23
2904,22796,53267,48,24
2905,22789,53283,48,24
2906,22796,53272,46,23
2907,22802,53256,47,23
2908,22796,53255,48,25
2909,22797,53247,48,23
2910,22796,53247,49,25
2911,22794,53248,48,25
2912,22795,53226,49,24
2913,22786,53238,48,25
2914,22792,53230,46,25
2915,22792,53226,48,24
2916,22792,53220,48,23
2917,22789,53225,48,24
2918,22792,53213,50,24
2919,22788,53220,49,25
2920,22792,53221,47,23
2921,22792,53224,48,22
2922,22799,53215,48,24
2923,22797,53217,46,26
2924,22793,53214,48,25
2925,22794,53209,49,26
2926,22791,53211,47,25
2927,22791,53212,49,23
2928,22789,53211,49,25
2929,22788,53214,47,24
2930,22789,53234,47,23
2931,22797,53231,48,23
2932,22794,53225,47,24
2933,22792,53232,49,25
2934,22793,53242,48,24
2935,22795,53242,48,24
2936,22794,53239,48,24
2937,22795,53238,48,23
2938,22795,53233,47,24
2939,22791,53249,48,24
2940,22800,53218,48,23
2941,22786,53248,46,23
2942,22796,53224,48,23
2943,22785,53245,48,24
2944,22795,53221,49,23
2945,22787,53240,48,24
2946,22795,53236,48,23
2947,22794,53235,48,24
2948,22792,53242,48,23
2949,22797,53234,48,21
2950,22796,53243,49,23
2951,22801,53224,49,22
2952,22792,53224,48,24
2953,22793,53222,48,23
2954,22792,53208,46,23
2955,22790,53218,48,22
2956,22795,53199,49,23
2957,22787,53222,49,22
2958,22797,53217,47,24
2959,22793,53214,49,23
2960,22792,53212,49,25
2961,22794,53212,49,22
2962,22797,53199,48,23
2963,22796,53195,48,22
2964,22795,53192,48,23
2965,22797,53186,48,22
2966,22794,53179,48,24
2967,22794,53181,50,24
2968,22794,53182,48,23
2969,22794,53182,49,25
2970,22793,53172,46,24
2971,22793,53184,48,23
2972,22800,53155,48,25
2973,22788,53177,49,26
2974,22799,53152,48,25
2975,22791,53169,48,26
2976,22801,53153,48,25
2977,22796,53152,49,25
2978,22799,53144,48,24
2979,22800,53138,49,23
2980,22797,53128,49,25
2981,22795,53134,49,25
2982,22801,53115,49,26
2983,22793,53124,49,23
2984,22795,53118,48,26
2985,22794,53133,49,25
2986,22799,53115,47,24
2987,22794,53131,47,25
2988,22802,53125,47,26
2989,22800,53129,47,25
2990,22802,53130,49,26
2991,22803,53128,49,25
2992,22806,53129,49,25
2993,22804,53136,49,24
2994,22805,53119,47,24
2995,22798,53130,46,24
2996,22803,53126,49,25
2997,22800,53118,47,25
2998,22795,53131,48,25
2999,22801,53124,49,24
3000,22798,53125,48,25
3001,22800,53132,48,24
3002,22803,53134,45,22
3003,22803,53148,46,23
3004,22807,53144,47,22
3005,22805,53139,48,22
3006,22803,53139,47,21
3007,22803,53152,48,23
3008,22808,53136,49,23
3009,22801,53139,47,24
3010,22804,53134,47,24
3011,22803,53123,47,24
3012,22799,53130,48,22
3013,22804,53126,48,23
3014,22799,53132,48,24
3015,22804,53132,48,24
3016,22807,53125,47,22
3017,22807,53136,50,23
3018,22808,53122,48,23
3019,22810,53121,46,22
3020,22810,53110,48,25
3021,22808,53112,47,23
3022,22808,53104,47,22
3023,22806,53105,49,22
3024,22808,53099,48,23
3025,22806,53107,47,20
3026,22808,53121,46,23
3027,22818,53094,45,24
3028,22807,53098,49,22
3029,22810,53091,50,23
3030,22810,53088,49,22
3031,22808,53095,50,24
3032,22814,53082,49,22
3033,22809,53080,48,23
3034,22812,53083,46,24
3035,22819,53061,47,23
3036,22810,53066,47,22
3037,22813,53060,48,21
3038,22812,53059,48,22
3039,22809,53069,47,24
3040,22812,53067,48,23
3041,22809,53071,49,24
3042,22811,53073,47,23
3043,22813,53078,47,23
3044,22813,53080,49,24
3045,22814,53074,48,24
3046,22815,53080,48,24
3047,22819,53072,49,22
3048,22817,53075,50,25
3049,22817,53070,47,25
3050,22817,53072,46,22
3051,22813,53082,48,23
3052,22817,53075,47,23
3053,22815,53095,48,24
3054,22821,53083,48,24
3055,22816,53084,48,25
3056,22817,53090,48,24
3057,22818,53092,48,24
3058,22818,53105,46,23
3059,22824,53103,45,27
3060,22822,53098,48,25
3061,22822,53097,46,23
3062,22821,53099,48,25
3063,22822,53110,49,25
3064,22824,53088,49,24
3065,22813,53117,49,23
3066,22823,53100,47,22
3067,22818,53103,47,22
3068,22819,53105,48,24
3069,22822,53106,48,22
3070,22821,53110,48,23
3071,22824,53110,48,22
3072,22824,53109,47,22
3073,22823,53111,48,24
3074,22827,53102,47,21
3075,22830,53091,48,23
3076,22825,53103,49,24
3077,22828,53104,47,23
3078,22827,53104,49,23
3079,22829,53097,49,24
3080,22823,53110,49,23
3081,22826,53102,48,22
3082,22823,53110,47,24
3083,22827,53102,47,24
3084,22822,53121,47,23
3085,22831,53094,48,23
3086,22820,53124,49,23
3087,22835,53103,47,22
3088,22826,53121,48,22
3089,22836,53095,49,23
3090,22827,53083,46,24
3091,22826,53092,49,24
3092,22830,53089,50,23
3093,22830,53080,48,24
3094,22825,53088,49,23
3095,22830,53089,49,24
3096,22829,53102,48,24
3097,22832,53086,48,23
3098,22825,53096,47,22
3099,22833,53086,48,24
3100,22831,53090,47,22
3101,22835,53091,48,22
3102,22834,53099,49,22
3103,22838,53083,47,24
3104,22830,53093,48,24
3105,22837,53089,49,23
3106,22833,53080,48,22
3107,22828,53079,48,24
3108,22830,53082,48,24
3109,22830,53093,49,25
3110,22835,53085,49,23
3111,22831,53084,49,24
3112,22831,53096,47,23
3113,22837,53093,49,22
3114,22835,53102,47,23
3115,22841,53092,47,23
3116,22836,53101,45,25
3117,22841,53100,48,23
3118,22841,53093,49,23
3119,22838,53090,48,24
3120,22837,53095,48,22
3121,22837,53087,49,21
3122,22834,53111,46,22
3123,22844,53096,48,23
3124,22838,53086,47,22
3125,22835,53101,50,20
3126,22842,53086,50,23
3127,22835,53105,48,23
3128,22843,53090,49,23
3129,22838,53109,49,23
3130,22844,53095,47,24
3131,22843,53109,48,22
3132,22849,53088,49,23
3133,22838,53111,48,23
3134,22850,53082,47,22
3135,22837,53102,49,22
3136,22845,53092,47,21
3137,22843,53093,48,24
3138,22844,53109,46,21
3139,22850,53114,49,22
3140,22851,53089,48,23
3141,22843,53118,50,24
3142,22855,53097,49,23
3143,22847,53107,50,25
3144,22852,53092,48,23
3145,22847,53092,49,22
3146,22847,53089,46,23
3147,22851,53093,48,23
3148,22852,53072,48,24
3149,22843,53088,48,23
3150,22849,53082,49,24
3151,22843,53104,48,23
3152,22853,53095,48,23
3153,22847,53109,49,23
3154,22851,53118,45,23
3155,22859,53104,49,24
3156,22851,53110,47,23
3157,22854,53108,48,24
3158,22852,53111,48,25
3159,22855,53100,49,23
3160,22851,53106,49,24
3161,22851,53107,49,24
3162,22850,53124,46,26
3163,22852,53113,46,23
3164,22845,53131,47,23
3165,22854,53129,48,25
3166,22849,53127,48,23
3167,22844,53158,49,24
3168,22856,53132,48,25
3169,22844,53172,48,26
3170,22861,53151,47,24
3171,22850,53154,50,24
3172,22853,53153,49,24
3173,22852,53148,48,23
3174,22851,53146,50,25
3175,22848,53149,49,23
3176,22850,53143,49,24
3177,22847,53158,48,22
3178,22848,53164,46,24
3179,22843,53181,47,25
3180,22852,53159,47,25
3181,22844,53173,48,23
3182,22848,53162,49,24
3183,22845,53170,48,24
3184,22847,53166,47,24
3185,22847,53174,49,24
3186,22848,53168,48,23
3187,22845,53168,49,24
3188,22843,53174,49,24
3189,22845,53170,49,25
3190,22843,53169,49,24
3191,22839,53176,49,24
3192,22840,53167,48,25
3193,22835,53185,48,24
3194,22839,53179,47,24
3195,22834,53195,47,24
3196,22840,53190,49,25
3197,22837,53201,47,24
3198,22839,53206,48,25
3199,22839,53202,48,24
3200,22837,53195,50,23
3201,22834,53190,48,24
3202,22829,53194,46,22
3203,22831,53191,47,24
3204,22829,53189,48,22
3205,22827,53184,49,23
3206,22823,53185,48,23
3207,22821,53196,48,23
3208,22825,53192,48,22
3209,22824,53191,48,22
3210,22818,53225,46,23
3211,22831,53200,47,22
3212,22817,53218,49,22
3213,22826,53192,49,22
3214,22812,53219,47,23
3215,22824,53203,47,24
3216,22815,53212,48,24
3217,22818,53198,48,23
3218,22810,53204,46,24
3219,22809,53211,48,24
3220,22811,53196,49,23
3221,22806,53208,47,23
3222,22810,53193,47,22
3223,22804,53199,48,24
3224,22807,53190,48,24
3225,22801,53207,48,24
3226,22810,53195,46,24
3227,22804,53198,46,23
3228,22808,53180,48,23
3229,22800,53178,46,25
3230,22801,53167,47,23
3231,22795,53176,48,24
3232,22797,53160,49,24
3233,22790,53165,47,24
3234,22793,53167,47,23
3235,22794,53174,50,23
3236,22798,53145,48,24
3237,22785,53163,47,25
3238,22795,53151,49,23
3239,22789,53155,51,24
3240,22790,53144,48,23
3241,22788,53141,48,25
3242,22790,53117,46,24
3243,22787,53114,47,23
3244,22786,53107,48,24
3245,22782,53113,47,25
3246,22784,53104,48,23
3247,22781,53102,48,23
3248,22779,53109,49,23
3249,22781,53087,49,21
3250,22772,53088,46,22
3251,22779,53098,48,22
3252,22781,53080,48,24
3253,22775,53091,46,22
3254,22782,53069,48,23
3255,22775,53082,48,23
3256,22781,53063,49,21
3257,22774,53062,49,23
3258,22777,53063,46,22
3259,22777,53040,46,22
3260,22769,53053,49,24
3261,22773,53040,48,21
3262,22766,53047,47,23
3263,22771,53027,49,22
3264,22762,53039,46,22
3265,22771,53036,49,23
3266,22768,53030,47,23
3267,22770,53024,47,22
3268,22768,53035,48,22
3269,22776,53016,48,22
3270,22770,53023,48,23
3271,22772,53011,47,24
3272,22767,53007,49,22
3273,22768,53000,49,23
3274,22766,52988,45,23
3275,22764,53010,46,21
3276,22771,52979,48,22
3277,22761,53005,47,24
3278,22773,52982,49,22
3279,22763,52986,49,22
3280,22766,52977,49,23
3281,22767,52981,48,24
3282,22769,52956,46,23
3283,22765,52951,48,23
3284,22764,52966,48,23
3285,22769,52954,49,23
3286,22767,52951,51,24
3287,22767,52947,50,24
3288,22764,52935,49,24
3289,22765,52937,48,24
3290,22764,52931,46,24
3291,22766,52918,48,24
3292,22761,52917,50,25
3293,22764,52915,47,24
3294,22764,52912,49,23
3295,22766,52905,48,24
3296,22765,52913,47,23
3297,22770,52891,48,23
3298,22763,52891,48,22
3299,22768,52882,48,23
3300,22765,52880,48,23
3301,22763,52870,48,22
3302,22761,52865,47,24
3303,22761,52874,50,24
3304,22763,52870,48,23
3305,22762,52870,48,24
3306,22764,52869,48,23
3307,22767,52848,48,23
3308,22762,52861,48,22
3309,22771,52837,47,23
3310,22764,52850,49,22
3311,22772,52833,49,22
3312,22764,52841,49,23
3313,22767,52825,46,24
3314,22765,52827,47,23
3315,22766,52825,48,22
3316,22765,52821,47,23
3317,22762,52828,48,23
3318,22767,52818,49,23
3319,22763,52817,48,24
3320,22766,52811,48,22
3321,22765,52812,49,22
3322,22767,52811,47,22
3323,22771,52807,45,24
3324,22773,52807,49,23
3325,22773,52795,47,24
3326,22771,52791,48,24
3327,22769,52800,48,23
3328,22773,52786,47,23
3329,22769,52790,49,23
3330,22768,52781,46,24
3331,22767,52786,47,22
3332,22769,52780,49,23
3333,22764,52792,48,22
3334,22769,52781,47,22
3335,22763,52792,50,22
3336,22771,52775,48,24
3337,22767,52791,48,23
3338,22774,52780,46,23
3339,22776,52784,47,23
3340,22778,52779,49,22
3341,22774,52769,48,24
3342,22771,52773,47,24
3343,22773,52763,48,21
3344,22767,52759,49,22
3345,22768,52759,47,23
3346,22770,52765,46,23
3347,22777,52762,47,23
3348,22777,52756,50,23
3349,22773,52761,47,23
3350,22776,52748,47,22
3351,22772,52756,47,21
3352,22776,52752,49,23
3353,22776,52753,48,23
3354,22778,52752,46,23
3355,22778,52747,47,25
3356,22775,52745,46,23
3357,22776,52736,47,23
3358,22772,52737,49,24
3359,22772,52730,48,22
3360,22768,52747,49,24
3361,22775,52743,48,24
3362,22774,52748,46,24
3363,22778,52751,49,22
3364,22778,52756,48,24
3365,22782,52746,49,23
3366,22779,52749,47,24
3367,22780,52752,48,25
3368,22780,52744,50,25
3369,22776,52749,48,23
3370,22778,52751,47,23
3371,22776,52755,47,24
3372,22776,52758,49,23
3373,22776,52758,49,23
3374,22776,52760,49,22
3375,22774,52776,48,23
3376,22781,52771,48,23
3377,22775,52792,49,23
3378,22782,52781,47,23
3379,22779,52792,49,24
3380,22782,52788,46,25
3381,22780,52784,49,23
3382,22780,52785,49,22
3383,22780,52790,48,24
3384,22779,52784,49,23
3385,22776,52805,50,26
3386,22783,52791,46,23
3387,22778,52803,46,23
3388,22783,52790,48,24
3389,22775,52809,47,22
3390,22786,52789,48,22
3391,22777,52811,48,24
3392,22786,52802,49,22
3393,22786,52797,49,23
3394,22782,52804,45,22
3395,22792,52796,47,24
3396,22789,52793,49,22
3397,22788,52780,50,22
3398,22782,52787,48,23
3399,22785,52801,48,23
3400,22790,52779,48,23
3401,22782,52792,49,23
3402,22785,52771,47,22
3403,22786,52772,47,24
3404,22786,52765,47,25
3405,22786,52776,49,22
3406,22791,52774,47,23
3407,22793,52762,49,26
3408,22789,52758,49,24
3409,22791,52751,50,25
3410,22788,52738,48,25
3411,22788,52742,49,24
3412,22788,52729,50,25
3413,22784,52731,47,24
3414,22785,52729,50,23
3415,22786,52716,47,24
3416,22785,52734,48,23
3417,22789,52716,49,24
3418,22781,52740,47,22
3419,22796,52713,47,23
3420,22783,52726,47,22
3421,22794,52721,48,23
3422,22791,52727,46,23
3423,22793,52709,49,23
3424,22788,52720,48,22
3425,22792,52712,48,22
3426,22788,52709,47,22
3427,22788,52716,46,24
3428,22790,52701,48,24
3429,22786,52728,48,22
3430,22794,52701,47,24
3431,22784,52716,49,24
3432,22793,52701,48,23
3433,22785,52715,48,24
3434,22792,52715,46,23
3435,22792,52715,46,22
3436,22794,52717,47,24
3437,22795,52703,49,25
3438,22788,52701,48,23
3439,22790,52700,47,22
3440,22789,52703,47,24
3441,22789,52692,48,23
3442,22784,52711,45,23
3443,22791,52709,47,23
3444,22788,52702,46,24
3445,22787,52701,48,23
3446,22788,52687,48,25
3447,22788,52697,47,24
3448,22795,52688,48,23
3449,22792,52684,48,24
3450,22793,52675,46,24
3451,22790,52677,47,22
3452,22793,52674,47,23
3453,22790,52662,47,22
3454,22790,52670,46,23
3455,22793,52647,47,24
3456,22784,52665,47,25
3457,22792,52651,47,23
3458,22786,52665,47,25
3459,22797,52672,48,23
3460,22799,52644,49,23
3461,22790,52655,49,22
3462,22795,52650,48,24
3463,22793,52638,49,24
3464,22792,52636,48,22
3465,22795,52631,50,24
3466,22794,52618,46,23
3467,22794,52608,48,24
3468,22790,52621,48,23
3469,22796,52603,49,25
3470,22787,52620,48,22
3471,22793,52604,47,24
3472,22784,52627,48,25
3473,22794,52607,48,24
3474,22786,52624,46,23
3475,22795,52618,47,25
3476,22794,52614,47,24
3477,22794,52596,49,24
3478,22791,52603,49,23
3479,22796,52605,48,24
3480,22794,52596,48,24
3481,22793,52601,49,24
3482,22794,52615,46,25
3483,22796,52602,47,22
3484,22787,52612,47,25
3485,22789,52612,46,23
3486,22789,52629,48,24
3487,22794,52616,47,24
3488,22790,52623,47,24
3489,22792,52629,48,26
3490,22792,52631,45,25
3491,22793,52635,48,23
3492,22795,52631,47,22
3493,22792,52626,47,25
3494,22789,52640,49,24
3495,22793,52622,49,23
3496,22785,52636,48,22
3497,22789,52627,49,25
3498,22788,52640,46,24
3499,22788,52646,48,25
3500,22788,52653,46,25
3501,22789,52658,48,24
3502,22792,52650,48,24
3503,22787,52660,48,24
3504,22792,52657,46,23
3505,22791,52654,47,24
3506,22792,52660,45,23
3507,22795,52660,48,22
3508,22794,52639,48,25
3509,22785,52666,47,25
3510,22795,52647,50,24
3511,22784,52665,48,26
3512,22792,52656,47,25
3513,22785,52670,47,24
3514,22791,52668,46,23
3515,22791,52674,47,23
3516,22793,52668,50,23
3517,22794,52665,47,23
3518,22793,52659,49,24
3519,22791,52664,48,24
3520,22797,52659,51,23
3521,22792,52662,47,23
3522,22793,52666,47,23
3523,22794,52661,47,23
3524,22792,52656,48,23
3525,22791,52654,47,22
3526,22788,52657,48,24
3527,22788,52649,49,23
3528,22787,52657,48,23
3529,22793,52655,48,23
3530,22793,52662,46,23
3531,22801,52649,47,24
3532,22795,52644,49,23
3533,22795,52652,50,24
3534,22798,52646,48,24
3535,22795,52639,47,24
3536,22792,52661,48,23
3537,22800,52637,46,24
3538,22787,52649,45,23
3539,22791,52651,49,25
3540,22793,52650,47,24
3541,22793,52651,49,25
3542,22790,52658,49,24
3543,22795,52659,48,25
3544,22795,52651,49,25
3545,22792,52679,48,27
3546,22802,52656,46,24
3547,22797,52665,48,24
3548,22799,52664,47,24
3549,22800,52655,49,24
3550,22794,52667,49,25
3551,22799,52658,47,23
3552,22793,52672,47,22
3553,22798,52671,49,23
3554,22796,52698,46,23
3555,22803,52690,47,24
3556,22796,52684,49,22
3557,22795,52689,49,22
3558,22800,52686,48,23
3559,22796,52703,49,24
3560,22802,52696,50,21
3561,22800,52695,48,23
3562,22802,52702,45,22
3563,22804,52696,45,23
3564,22801,52692,48,24
3565,22798,52707,48,23
3566,22802,52693,46,23
3567,22797,52691,49,22
3568,22798,52699,48,22
3569,22801,52689,49,23
3570,22797,52711,46,23
3571,22807,52717,49,23
3572,22810,52700,47,24
3573,22807,52698,48,23
3574,22805,52706,49,24
3575,22810,52687,49,21
3576,22804,52690,50,23
3577,22811,52691,49,24
3578,22807,52686,47,21
3579,22809,52672,47,22
3580,22802,52684,46,24
3581,22808,52675,46,24
3582,22803,52688,49,23
3583,22808,52677,49,24
3584,22803,52704,47,23
3585,22813,52690,49,24
3586,22808,52709,46,23
3587,22818,52691,48,22
3588,22810,52696,48,21
3589,22813,52695,48,22
3590,22814,52686,48,23
3591,22812,52688,47,23
3592,22811,52691,48,24
3593,22812,52694,49,24
3594,22812,52703,46,24
3595,22812,52702,46,23
3596,22811,52702,47,22
3597,22811,52700,47,22
3598,22812,52717,47,22
3599,22818,52706,48,22
3600,22813,52723,48,23
3601,22819,52717,48,23
3602,22816,52725,46,22
3603,22819,52732,47,23
3604,22817,52717,48,22
3605,22813,52729,49,22
3606,22816,52736,48,23
3607,22813,52744,48,22
3608,22816,52730,47,23
3609,22811,52745,48,22
3610,22816,52753,44,22
3611,22813,52755,48,22
3612,22816,52756,46,21
3613,22818,52756,47,23
3614,22815,52760,48,22
3615,22819,52756,49,23
3616,22818,52770,48,22
3617,22824,52771,47,24
3618,22820,52793,46,23
3619,22825,52797,48,23
3620,22825,52778,49,23
3621,22817,52785,48,23
3622,22821,52792,49,23
3623,22819,52789,47,24
3624,22816,52793,48,22
3625,22819,52792,49,24
3626,22819,52799,47,22
3627,22824,52802,48,24
3628,22825,52802,48,21
3629,22823,52805,49,23
3630,22828,52785,47,22
3631,22820,52795,47,22
3632,22825,52792,49,22
3633,22823,52797,49,23
3634,22827,52780,47,22
3635,22820,52776,47,22
3636,22819,52796,48,21
3637,22823,52788,49,21
3638,22821,52793,49,21
3639,22824,52791,48,21
3640,22823,52794,47,22
3641,22826,52791,47,20
3642,22824,52801,46,21
3643,22832,52790,46,22
3644,22827,52800,48,23
3645,22828,52795,47,24
3646,22826,52792,48,24
3647,22826,52803,48,24
3648,22828,52797,47,23
3649,22825,52802,49,24
3650,22826,52812,47,22
3651,22826,52804,47,24
3652,22823,52820,48,24
3653,22829,52823,48,24
3654,22828,52830,48,23
3655,22830,52822,49,24
3656,22826,52832,48,23
3657,22832,52838,48,21
3658,22833,52837,45,23
3659,22833,52842,48,23
3660,22832,52839,47,26
3661,22833,52834,48,23
3662,22829,52857,48,25
3663,22839,52833,48,23
3664,22823,52858,48,22
3665,22836,52840,49,22
3666,22825,52876,47,23
3667,22840,52864,49,21
3668,22835,52865,50,23
3669,22837,52861,50,23
3670,22834,52874,50,22
3671,22839,52862,49,23
3672,22836,52871,48,21
3673,22842,52866,49,21
3674,22839,52865,46,22
3675,22839,52864,46,22
3676,22838,52850,46,22
3677,22833,52862,48,22
3678,22839,52861,47,23
3679,22836,52862,47,22
3680,22836,52872,48,22
3681,22841,52867,48,24
3682,22841,52884,47,21
3683,22854,52875,48,23
3684,22849,52865,48,24
3685,22843,52868,48,23
3686,22846,52861,48,24
3687,22850,52858,47,22
3688,22848,52844,49,23
3689,22840,52853,49,24
3690,22847,52846,47,22
3691,22846,52845,47,24
3692,22844,52844,47,24
3693,22842,52850,47,23
3694,22847,52845,48,25
3695,22846,52848,49,23
3696,22848,52844,48,23
3697,22845,52855,48,23
3698,22853,52851,44,24
3699,22852,52836,48,23
3700,22848,52844,47,22
3701,22851,52840,48,22
3702,22852,52830,47,23
3703,22847,52837,49,24
3704,22848,52841,48,23
3705,22848,52834,49,23
3706,22843,52866,47,24
3707,22849,52851,47,23
3708,22843,52864,48,24
3709,22846,52858,50,23
3710,22842,52883,47,24
3711,22848,52877,46,24
3712,22843,52885,49,22
3713,22845,52882,48,22
3714,22842,52889,46,23
3715,22841,52896,47,22
3716,22842,52885,48,24
3717,22837,52901,49,24
3718,22843,52887,49,22
3719,22834,52905,48,22
3720,22840,52894,48,25
3721,22831,52920,46,22
3722,22839,52923,46,22
3723,22838,52929,46,23
3724,22842,52935,47,22
3725,22841,52926,47,24
3726,22835,52935,48,24
3727,22840,52932,48,22
3728,22837,52937,49,22
3729,22835,52935,48,24
3730,22834,52947,48,24
3731,22834,52947,47,23
3732,22835,52941,49,25
3733,22828,52945,49,24
3734,22829,52955,49,24
3735,22827,52954,47,24
3736,22826,52971,49,26
3737,22830,52955,48,25
3738,22823,52962,46,23
3739,22824,52963,48,25
3740,22826,52970,47,24
3741,22826,52963,49,25
3742,22824,52964,47,23
3743,22823,52959,48,25
3744,22819,52956,48,25
3745,22818,52964,49,25
3746,22823,52951,46,24
3747,22813,52955,50,24
3748,22816,52946,46,23
3749,22814,52953,49,25
3750,22814,52966,48,23
3751,22817,52956,48,23
3752,22814,52974,48,23
3753,22821,52950,48,22
3754,22812,52942,46,22
3755,22815,52946,48,22
3756,22816,52924,48,22
3757,22806,52923,46,22
3758,22806,52929,49,22
3759,22806,52913,48,22
3760,22800,52929,49,24
3761,22807,52913,49,23
3762,22797,52924,45,22
3763,22801,52930,48,21
3764,22802,52909,48,21
3765,22794,52922,47,21
3766,22803,52904,47,23
3767,22794,52918,48,24
3768,22802,52889,48,23
3769,22794,52904,50,24
3770,22805,52877,46,23
3771,22797,52860,47,23
3772,22788,52870,47,23
3773,22793,52855,47,23
3774,22785,52859,49,23
3775,22787,52849,50,24
3776,22783,52850,49,24
3777,22784,52850,48,24
3778,22784,52847,48,23
3779,22786,52845,48,22
3780,22786,52837,48,24
3781,22783,52839,48,22
3782,22786,52829,46,24
3783,22784,52828,49,23
3784,22784,52823,48,23
3785,22782,52814,49,22
3786,22777,52824,46,21
3787,22779,52809,46,24
3788,22773,52810,48,22
3789,22774,52792,47,24
3790,22766,52824,47,23
3791,22778,52804,49,25
3792,22768,52805,48,25
3793,22771,52811,48,22
3794,22774,52810,47,23
3795,22773,52809,48,23
3796,22774,52796,48,23
3797,22768,52800,48,23
3798,22772,52789,46,23
3799,22769,52788,49,24
3800,22767,52786,48,23
3801,22766,52786,49,24
3802,22770,52786,44,23
3803,22764,52782,47,23
3804,22764,52775,48,23
3805,22761,52785,47,23
3806,22765,52773,49,22
3807,22761,52783,48,23
3808,22768,52770,48,22
3809,22764,52785,48,21
3810,22770,52772,46,23
3811,22765,52780,48,23
3812,22767,52766,49,24
3813,22763,52770,47,23
3814,22764,52763,48,23
3815,22761,52768,48,22
3816,22764,52751,49,22
3817,22759,52765,48,23
3818,22763,52757,47,23
3819,22758,52771,45,23
3820,22765,52748,48,23
3821,22756,52761,48,23
3822,22766,52741,48,25
3823,22758,52757,48,23
3824,22767,52739,49,25
3825,22759,52749,47,23
3826,22765,52742,45,24
3827,22763,52742,49,25
3828,22763,52729,48,23
3829,22760,52727,47,23
3830,22756,52722,47,23
3831,22758,52726,48,23
3832,22758,52718,48,23
3833,22757,52728,48,24
3834,22759,52722,45,24
3835,22760,52722,47,24
3836,22762,52707,47,24
3837,22757,52717,49,24
3838,22763,52705,49,25
3839,22761,52709,48,25
3840,22764,52687,49,22
3841,22757,52698,48,24
3842,22761,52686,47,22
3843,22761,52672,48,22
3844,22756,52673,48,22
3845,22757,52670,48,23
3846,22755,52678,49,22
3847,22758,52671,50,22
3848,22755,52673,48,20
3849,22758,52670,48,23
3850,22757,52670,46,21
3851,22762,52676,47,21
3852,22766,52664,48,22
3853,22760,52654,47,21
3854,22759,52661,47,22
3855,22761,52660,47,23
3856,22762,52647,48,24
3857,22757,52655,48,23
3858,22757,52674,48,24
3859,22760,52666,46,22
3860,22758,52672,49,24
3861,22760,52668,47,22
3862,22756,52688,47,23
3863,22762,52681,48,24
3864,22758,52690,47,21
3865,22764,52694,48,23
3866,22763,52702,47,22
3867,22768,52687,48,20
3868,22758,52697,47,23
3869,22763,52693,48,22
3870,22761,52702,48,22
3871,22760,52705,49,22
3872,22762,52703,48,22
3873,22758,52703,48,23
3874,22757,52737,47,24
3875,22769,52731,46,24
3876,22766,52724,49,23
3877,22763,52743,49,23
3878,22768,52736,49,25
3879,22766,52731,48,22
3880,22764,52747,47,23
3881,22770,52737,49,24
3882,22765,52738,47,22
3883,22766,52727,46,23
3884,22763,52729,48,23
3885,22763,52735,50,24
3886,22762,52738,48,23
3887,22764,52740,49,24
3888,22764,52752,48,24
3889,22769,52735,48,25
3890,22760,52752,47,23
3891,22767,52765,48,25
3892,22772,52754,49,24
3893,22765,52766,49,24
3894,22773,52749,49,24
3895,22765,52754,47,23
3896,22769,52753,48,26
3897,22768,52752,48,24
3898,22769,52743,47,24
3899,22768,52750,48,24
3900,22768,52752,47,24
3901,22768,52751,49,26
3902,22769,52759,49,25
3903,22769,52757,49,25
3904,22769,52756,49,25
3905,22767,52769,50,24
3906,22773,52775,49,25
3907,22779,52762,48,26
3908,22776,52753,47,25
3909,22772,52762,49,24
3910,22777,52746,48,25
3911,22770,52756,49,26
3912,22773,52749,49,26
3913,22771,52752,48,25
3914,22771,52777,47,23
3915,22777,52767,48,23
3916,22770,52783,49,24
3917,22775,52775,47,22
3918,22773,52789,46,23
3919,22780,52790,46,23
3920,22779,52778,49,24
3921,22774,52789,50,22
3922,22779,52791,48,23
3923,22779,52778,49,21
3924,22775,52788,49,25
3925,22776,52788,48,24
3926,22774,52788,50,25
3927,22777,52787,49,24
3928,22773,52784,49,23
3929,22771,52811,48,24
3930,22777,52816,45,23
3931,22776,52828,47,23
3932,22780,52820,46,24
3933,22777,52839,48,24
3934,22783,52836,48,24
3935,22783,52837,48,26
3936,22783,52828,49,26
3937,22781,52836,48,24
3938,22780,52851,46,26
3939,22782,52846,48,24
3940,22781,52841,49,24
3941,22779,52845,48,25
3942,22780,52851,47,24
3943,22779,52856,48,21
3944,22777,52862,50,23
3945,22782,52850,48,22
3946,22775,52876,47,22
3947,22789,52864,47,24
3948,22782,52874,48,22
3949,22787,52868,49,25
3950,22783,52869,49,22
3951,22785,52861,48,24
3952,22783,52861,47,22
3953,22786,52860,49,22
3954,22782,52863,47,24
3955,22783,52874,48,22
3956,22785,52857,49,23
3957,22777,52864,47,22
3958,22780,52878,48,25
3959,22786,52871,48,23
3960,22781,52875,48,23
3961,22782,52874,48,24
3962,22784,52881,46,22
3963,22787,52863,47,25
3964,22782,52880,47,22
3965,22788,52869,49,23
3966,22784,52887,48,23
3967,22788,52873,47,24
3968,22779,52879,48,24
3969,22779,52880,49,25
3970,22780,52894,46,23
3971,22787,52891,47,25
3972,22784,52881,47,24
3973,22780,52895,49,24
3974,22785,52882,49,24
3975,22781,52890,48,24
3976,22785,52900,49,23
3977,22789,52884,50,24
3978,22784,52895,46,25
3979,22789,52873,47,24
3980,22782,52880,47,25
3981,22784,52874,49,23
3982,22782,52872,48,23
3983,22781,52878,50,22
3984,22780,52876,48,22
3985,22781,52884,49,23
3986,22784,52883,47,22
3987,22784,52883,47,23
3988,22785,52875,49,23
3989,22784,52871,48,23
3990,22788,52867,49,23
3991,22785,52872,48,23
3992,22787,52867,49,22
3993,22785,52870,50,24
3994,22785,52860,46,23
3995,22786,52857,46,24
3996,22785,52860,47,23
3997,22782,52860,47,23
3998,22782,52860,48,25
3999,22781,52871,48,23
4000,22784,52863,47,23
4001,22779,52889,48,25
4002,22788,52869,46,24
4003,22785,52870,47,22
4004,22784,52868,48,24
4005,22786,52858,48,25
4006,22785,52855,49,24
4007,22784,52861,47,26
4008,22785,52869,50,23
4009,22787,52861,49,22
4010,22780,52872,47,23
4011,22786,52873,47,24
4012,22783,52863,49,24
4013,22782,52882,50,23
4014,22787,52868,48,24
4015,22781,52878,49,24
4016,22785,52881,49,24
4017,22790,52883,47,24
4018,22787,52887,48,23
4019,22794,52870,49,23
4020,22786,52876,48,24
4021,22791,52859,48,25
4022,22785,52869,48,23
4023,22786,52864,48,22
4024,22785,52877,50,23
4025,22788,52864,47,23
4026,22782,52883,45,23
4027,22789,52867,48,23
4028,22784,52881,47,24
4029,22791,52872,47,23
4030,22786,52884,47,23
4031,22791,52883,48,23
4032,22788,52884,48,23
4033,22791,52876,48,21
4034,22790,52875,46,21
4035,22792,52875,48,23
4036,22793,52867,49,23
4037,22789,52873,49,24
4038,22791,52871,50,21
4039,22786,52877,48,22
4040,22789,52862,49,21
4041,22784,52885,48,21
4042,22792,52883,45,23
4043,22788,52898,46,23
4044,22793,52881,47,23
4045,22789,52899,48,23
4046,22796,52886,50,24
4047,22792,52890,49,24
4048,22794,52891,49,24
4049,22792,52883,47,24
4050,22788,52892,47,24
4051,22792,52886,47,24
4052,22789,52885,49,23
4053,22786,52881,49,24
4054,22787,52888,48,24
4055,22786,52896,48,24
4056,22789,52894,47,23
4057,22788,52902,49,24
4058,22789,52900,47,23
4059,22791,52908,46,23
4060,22797,52900,48,22
4061,22796,52904,46,22
4062,22795,52893,47,21
4063,22790,52911,48,22
4064,22798,52893,49,22
4065,22789,52918,48,23
4066,22796,52906,46,23
4067,22791,52903,48,22
4068,22787,52919,47,21
4069,22793,52924,47,24
4070,22793,52917,49,22
4071,22790,52936,49,22
4072,22797,52934,48,23
4073,22794,52934,49,23
4074,22796,52928,46,22
4075,22798,52932,46,23
4076,22800,52926,47,21
4077,22794,52932,49,21
4078,22793,52939,46,23
4079,22796,52936,48,22
4080,22793,52941,49,23
4081,22793,52945,48,23
4082,22794,52970,47,22
4083,22800,52964,47,23
4084,22796,52956,49,23
4085,22796,52963,48,24
4086,22797,52965,49,24
4087,22799,52959,48,24
4088,22797,52971,48,23
4089,22800,52968,48,25
4090,22799,52968,46,23
4091,22801,52971,48,24
4092,22800,52963,47,23
4093,22794,52973,48,22
4094,22800,52967,50,24
4095,22795,52973,48,21
4096,22798,52981,47,22
4097,22801,52978,49,22
4098,22797,52994,46,21
4099,22809,52988,47,21
4100,22805,52976,49,23
4101,22803,52994,49,22
4102,22809,52980,49,25
4103,22803,52994,48,24
4104,22809,52980,48,23
4105,22802,52990,49,22
4106,22806,52987,45,22
4107,22802,52997,46,24
4108,22803,52993,49,21
4109,22801,53003,47,22
4110,22805,52991,48,22
4111,22801,53006,48,24
4112,22807,53000,49,24
4113,22806,53000,48,21
4114,22807,53015,46,22
4115,22817,53015,48,24
4116,22818,52992,47,22
4117,22809,53010,50,24
4118,22815,52988,48,22
4119,22807,53000,48,23
4120,22810,52987,49,23
4121,22806,52998,49,21
4122,22808,53001,46,24
4123,22808,53009,48,24
4124,22811,53001,48,22
4125,22808,53015,47,23
4126,22811,53014,48,23
4127,22811,53014,48,24
4128,22814,53019,49,23
4129,22814,53021,48,24
4130,22816,53024,47,24
4131,22816,53015,46,24
4132,22812,53026,47,24
4133,22817,53018,48,23
4134,22811,53029,49,24
4135,22815,53020,49,23
4136,22811,53028,47,23
4137,22814,53032,48,24
4138,22813,53044,48,23
4139,22815,53048,49,24
4140,22818,53052,46,23
4141,22820,53044,47,23
4142,22818,53048,48,24
4143,22822,53038,47,24
4144,22818,53039,48,24
4145,22817,53043,48,23
4146,22820,53048,47,22
4147,22825,53050,49,24
4148,22827,53029,48,24
4149,22816,53037,49,25
4150,22821,53031,48,23
4151,22816,53046,49,24
4152,22822,53030,48,21
4153,22817,53055,49,23
4154,22826,53050,48,22
4155,22823,53052,47,24
4156,22824,53056,49,22
4157,22828,53048,48,23
4158,22825,53045,48,24
4159,22824,53049,48,23
4160,22828,53053,49,23
4161,22824,53051,49,23
4162,22825,53054,48,22
4163,22824,53055,48,23
4164,22825,53059,48,24
4165,22824,53065,48,23
4166,22824,53062,48,23
4167,22825,53064,48,24
4168,22825,53070,50,23
4169,22828,53054,49,24
4170,22823,53073,48,23
4171,22837,53043,48,24
4172,22826,53058,46,23
4173,22835,53046,48,25
4174,22827,53045,49,25
4175,22831,53057,48,23
4176,22833,53046,48,23
4177,22827,53047,50,25
4178,22829,53054,47,23
4179,22832,53043,49,23
4180,22828,53047,49,25
4181,22829,53039,49,23
4182,22826,53053,49,22
4183,22831,53040,50,23
4184,22827,53058,48,21
4185,22837,53045,49,23
4186,22830,53065,45,24
4187,22840,53036,47,23
4188,22831,53062,48,23
4189,22839,53032,47,24
4190,22826,53063,50,23
4191,22841,53046,49,24
4192,22832,53058,48,24
4193,22836,53055,50,24
4194,22831,53066,46,24
4195,22835,53055,47,24
4196,22832,53063,48,23
4197,22837,53062,46,24
4198,22838,53069,47,24
4199,22842,53058,49,25
4200,22836,53062,49,24
4201,22842,53050,48,23
4202,22839,53055,46,24
4203,22840,53053,48,25
4204,22840,53057,48,23
4205,22840,53048,48,23
4206,22833,53060,48,22
4207,22836,53066,46,23
4208,22839,53070,48,24
4209,22840,53073,48,22
4210,22840,53089,46,23
4211,22847,53084,48,21
4212,22847,53083,48,22
4213,22847,53075,48,24
4214,22844,53076,48,25
4215,22845,53085,48,25
4216,22846,53080,47,24
4217,22846,53073,50,25
4218,22840,53088,46,22
4219,22846,53079,47,25
4220,22842,53090,47,22
4221,22847,53087,47,22
4222,22845,53092,49,22
4223,22846,53080,48,23
4224,22842,53095,48,23
4225,22849,53086,47,25
4226,22846,53100,45,23
4227,22858,53104,48,21
4228,22856,53073,48,24
4229,22844,53102,49,24
4230,22855,53081,48,24
4231,22847,53091,48,23
4232,22850,53081,48,25
4233,22848,53085,50,24
4234,22846,53106,48,22
4235,22849,53104,47,23
4236,22847,53109,48,21
4237,22850,53100,48,24
4238,22846,53114,47,23
4239,22851,53120,49,23
4240,22852,53114,48,22
4241,22850,53119,49,23
4242,22852,53119,46,24
4243,22853,53123,48,23
4244,22853,53116,49,24
4245,22846,53128,47,24
4246,22848,53128,49,23
4247,22845,53139,48,23
4248,22846,53134,48,23
4249,22843,53148,50,23
4250,22846,53156,46,23
4251,22849,53156,48,22
4252,22846,53165,47,23
4253,22850,53164,48,22
4254,22848,53154,47,22
4255,22843,53157,47,23
4256,22843,53168,49,23
4257,22848,53160,48,23
4258,22842,53166,46,25
4259,22842,53167,49,23
4260,22841,53174,50,22
4261,22843,53173,48,23
4262,22838,53175,48,23
4263,22838,53196,48,25
4264,22842,53186,49,23
4265,22838,53199,47,24
4266,22842,53209,45,22
4267,22842,53187,47,22
4268,22833,53223,47,22
4269,22848,53198,47,22
4270,22835,53214,49,22
4271,22839,53208,49,20
4272,22835,53208,49,23
4273,22835,53205,48,22
4274,22832,53224,47,23
4275,22831,53235,47,22
4276,22834,53211,47,22
4277,22822,53242,47,23
4278,22832,53224,48,22
4279,22825,53251,48,22
4280,22833,53241,48,23
4281,22824,53244,47,24
4282,22825,53256,47,22
4283,22828,53258,48,22
4284,22826,53254,47,22
4285,22826,53253,47,22
4286,22823,53252,48,23
4287,22817,53261,48,24
4288,22818,53261,47,23
4289,22817,53259,47,23
4290,22816,53282,45,21
4291,22819,53276,48,22
4292,22816,53251,48,22
4293,22806,53269,48,22
4294,22814,53253,48,24
4295,22807,53275,47,24
4296,22817,53253,49,24
4297,22811,53260,49,24
4298,22811,53267,45,24
4299,22809,53249,49,25
4300,22801,53260,49,24
4301,22805,53264,49,21
4302,22805,53251,48,24
4303,22796,53261,49,24
4304,22801,53255,49,24
4305,22797,53263,50,23
4306,22798,53275,48,24
4307,22803,53265,48,24
4308,22798,53263,48,26
4309,22798,53246,47,22
4310,22794,53255,47,24
4311,22798,53240,49,23
4312,22793,53252,49,22
4313,22797,53226,48,23
4314,22786,53242,46,23
4315,22792,53223,49,23
4316,22783,53220,47,23
4317,22783,53234,47,23
4318,22789,53218,48,24
4319,22781,53221,49,24
4320,22783,53210,48,24
4321,22783,53212,49,24
4322,22782,53217,46,23
4323,22781,53225,48,25
4324,22785,53214,49,23
4325,22778,53223,50,22
4326,22782,53215,49,24
4327,22777,53209,49,24
4328,22774,53214,49,24
4329,22778,53205,49,25
4330,22773,53218,45,24
4331,22776,53211,46,24
4332,22772,53207,48,24
4333,22771,53215,49,24
4334,22773,53201,49,25
4335,22768,53217,48,23
4336,22775,53204,49,23
4337,22769,53221,49,24
4338,22774,53208,47,25
4339,22766,53209,47,23
4340,22769,53219,48,24
4341,22771,53207,48,24
4342,22765,53213,48,24
4343,22769,53199,47,24
4344,22761,53211,49,24
4345,22766,53213,50,24
4346,22762,53217,44,23
4347,22765,53215,46,23
4348,22765,53215,47,24
4349,22763,53217,47,25
4350,22764,53215,47,25
4351,22765,53200,49,25
4352,22762,53200,50,23
4353,22765,53192,48,24
4354,22764,53187,45,23
4355,22763,53189,49,24
4356,22764,53181,48,24
4357,22761,53173,49,24
4358,22757,53184,48,24
4359,22757,53180,48,24
4360,22756,53182,48,23
4361,22756,53186,48,24
4362,22756,53187,46,22
4363,22762,53177,48,23
4364,22759,53177,48,23
4365,22760,53178,48,23
4366,22764,53167,47,25
4367,22757,53164,48,24
4368,22759,53163,50,23
4369,22761,53144,50,23
4370,22751,53146,46,24
4371,22753,53147,48,24
4372,22752,53158,48,23
4373,22755,53158,48,25
4374,22755,53158,50,23
4375,22755,53156,48,22
4376,22753,53171,48,23
4377,22759,53156,48,22
4378,22753,53174,47,21
4379,22763,53165,47,23
4380,22761,53155,49,24
4381,22757,53167,49,22
4382,22760,53143,49,23
4383,22751,53163,49,23
4384,22755,53147,50,23
4385,22751,53156,49,23
4386,22753,53156,46,23
4387,22753,53156,48,21
4388,22754,53158,50,22
4389,22756,53149,49,23
4390,22754,53152,49,23
4391,22757,53152,49,23
4392,22760,53143,49,23
4393,22757,53145,48,22
4394,22758,53151,47,22
4395,22764,53141,47,24
4396,22758,53134,48,24
4397,22757,53137,48,23
4398,22759,53132,49,23
4399,22759,53118,49,24
4400,22752,53132,49,22
4401,22758,53126,49,25
4402,22753,53132,47,24
4403,22759,53141,48,25
4404,22764,53137,49,23
4405,22763,53134,49,24
4406,22763,53125,49,25
4407,22762,53129,49,24
4408,22765,53120,49,25
4409,22764,53118,48,24
4410,22766,53121,46,23
4411,22765,53112,48,22
4412,22762,53108,48,23
4413,22758,53122,49,23
4414,22764,53118,49,22
4415,22763,53120,48,22
4416,22762,53136,49,22
4417,22766,53123,49,23
4418,22762,53133,47,23
4419,22770,53130,49,23
4420,22771,53128,48,23
4421,22770,53135,49,25
4422,22773,53107,50,24
4423,22766,53120,49,23
4424,22772,53099,48,25
4425,22763,53118,48,23
4426,22769,53119,46,24
4427,22769,53119,48,24
4428,22772,53109,48,24
4429,22765,53122,48,23
4430,22771,53121,48,24
4431,22770,53123,48,24
4432,22770,53117,48,22
4433,22770,53131,48,23
4434,22775,53132,46,24
4435,22783,53133,48,23
4436,22780,53107,48,24
4437,22773,53122,47,24
4438,22781,53101,48,22
4439,22772,53111,47,23
4440,22779,53092,49,24
4441,22773,53094,49,23
4442,22773,53084,47,24
4443,22774,53093,47,24
4444,22776,53090,49,24
4445,22775,53093,47,24
4446,22779,53096,47,23
4447,22779,53087,48,24
4448,22778,53093,48,23
4449,22784,53078,47,22
4450,22778,53083,46,23
4451,22784,53082,47,23
4452,22779,53080,49,23
4453,22781,53075,49,24
4454,22779,53077,48,24
4455,22781,53079,47,25
4456,22777,53080,50,23
4457,22777,53085,48,22
4458,22779,53091,46,23
4459,22779,53096,47,22
4460,22782,53110,47,24
4461,22786,53105,48,23
4462,22784,53110,49,22
4463,22786,53109,48,23
4464,22785,53105,48,23
4465,22783,53100,49,23
4466,22781,53117,47,22
4467,22784,53135,47,23
4468,22789,53109,49,22
4469,22777,53120,49,23
4470,22781,53125,48,24
4471,22780,53132,47,23
4472,22778,53141,48,23
4473,22780,53125,48,23
4474,22774,53164,46,23
4475,22791,53145,48,22
4476,22781,53162,48,23
4477,22789,53151,48,24
4478,22785,53159,49,24
4479,22785,53159,49,24
4480,22787,53155,47,24
4481,22782,53153,49,24
4482,22780,53148,47,22
4483,22782,53166,48,23
4484,22790,53144,48,22
4485,22779,53160,47,23
4486,22786,53156,47,21
4487,22782,53171,48,22
4488,22788,53163,47,24
4489,22786,53168,47,22
4490,22788,53176,47,22
4491,22794,53159,46,22
4492,22784,53163,48,23
4493,22790,53160,47,22
4494,22786,53163,48,21
4495,22788,53161,47,24
4496,22788,53152,49,23
4497,22783,53157,47,23
4498,22786,53164,46,24
4499,22788,53148,47,24
4500,22781,53157,48,23
4501,22785,53160,49,23
4502,22786,53155,48,22
4503,22788,53150,48,23
4504,22786,53164,49,24
4505,22792,53154,49,22
4506,22786,53162,47,22
4507,22791,53148,47,23
4508,22783,53159,48,24
4509,22791,53140,48,23
4510,22784,53146,49,24
4511,22785,53136,48,25
4512,22780,53142,47,24
4513,22783,53149,49,23
4514,22785,53157,46,24
4515,22787,53151,48,24
4516,22783,53155,48,23
4517,22789,53149,50,22
4518,22788,53145,46,23
4519,22789,53152,48,21
4520,22791,53147,46,23
4521,22790,53141,47,21
4522,22787,53153,46,22
4523,22789,53134,48,24
4524,22781,53149,49,22
4525,22785,53149,46,23
4526,22783,53162,47,22
4527,22787,53155,48,23
4528,22785,53145,48,23
4529,22783,53155,48,23
4530,22788,53159,45,23
4531,22791,53155,48,24
4532,22790,53155,48,22
4533,22794,53145,48,24
4534,22788,53151,49,24
4535,22791,53146,50,21
4536,22787,53157,50,23
4537,22789,53145,48,25
4538,22785,53155,49,22
4539,22790,53148,44,23
4540,22786,53165,46,22
4541,22791,53152,49,23
4542,22786,53154,49,24
4543,22787,53158,48,24
4544,22790,53167,48,25
4545,22793,53162,48,23
4546,22791,53159,46,24
4547,22795,53159,47,24
4548,22792,53149,48,24
4549,22790,53153,49,24
4550,22791,53147,49,22
4551,22790,53142,48,23
4552,22787,53144,49,23
4553,22789,53143,49,23
4554,22788,53135,47,24
4555,22785,53147,45,23
4556,22791,53135,47,24
4557,22789,53145,48,24
4558,22792,53133,48,23
4559,22787,53152,47,23
4560,22798,53132,49,22
4561,22789,53143,49,22
4562,22794,53114,45,22
4563,22788,53128,49,22
4564,22792,53117,48,24
4565,22785,53123,47,21
4566,22790,53117,47,22
4567,22787,53110,50,21
4568,22786,53126,48,21
4569,22791,53114,47,22
4570,22787,53127,48,22
4571,22795,53119,46,22
4572,22792,53135,47,22
4573,22797,53132,48,23
4574,22794,53127,47,22
4575,22792,53136,48,24
4576,22795,53116,49,23
4577,22791,53130,49,24
4578,22795,53134,47,24
4579,22793,53137,49,23
4580,22795,53107,49,23
4581,22783,53124,49,24
4582,22788,53131,49,24
4583,22791,53132,50,25
4584,22791,53130,48,24
4585,22789,53138,49,24
4586,22793,53149,48,24
4587,22797,53144,48,23
4588,22795,53147,48,24
4589,22797,53133,49,23
4590,22792,53131,48,24
4591,22792,53137,50,24
4592,22793,53129,48,24
4593,22789,53136,49,25
4594,22790,53145,48,23
4595,22792,53149,48,26
4596,22793,53146,48,24
4597,22790,53150,49,25
4598,22792,53142,49,23
4599,22790,53148,48,25
4600,22793,53156,48,26
4601,22798,53143,50,26
4602,22792,53150,48,24
4603,22797,53147,46,24
4604,22799,53133,48,23
4605,22792,53138,46,23
4606,22793,53137,49,22
4607,22793,53140,48,23
4608,22794,53145,47,26
4609,22796,53134,48,23
4610,22792,53147,48,23
4611,22797,53159,49,23
4612,22800,53152,49,25
4613,22795,53152,49,24
4614,22798,53157,47,26
4615,22800,53155,49,23
4616,22798,53167,47,24
4617,22803,53155,48,25
4618,22801,53149,51,25
4619,22797,53153,47,25
4620,22800,53148,46,25
4621,22799,53154,47,24
4622,22797,53154,48,25
4623,22796,53167,48,26
4624,22803,53159,49,26
4625,22798,53169,49,24
4626,22801,53179,47,26
4627,22804,53183,48,24
4628,22805,53163,48,26
4629,22799,53183,46,25
4630,22807,53174,47,25
4631,22804,53176,47,26
4632,22805,53172,48,25
4633,22800,53179,50,26
4634,22804,53176,49,25
4635,22799,53190,47,25
4636,22799,53196,48,25
4637,22799,53190,46,25
4638,22798,53199,48,26
4639,22802,53189,49,25
4640,22800,53206,47,26
4641,22808,53190,49,24
4642,22802,53204,45,24
4643,22810,53205,49,23
4644,22809,53201,49,25
4645,22808,53199,47,25
4646,22808,53201,50,24
4647,22807,53191,50,23
4648,22802,53198,48,25
4649,22805,53191,48,25
4650,22803,53201,48,25
4651,22807,53208,46,24
4652,22805,53218,47,24
4653,22806,53217,48,23
4654,22810,53214,49,23
4655,22807,53220,48,24
4656,22810,53222,48,23
4657,22810,53220,47,23
4658,22812,53221,47,23
4659,22814,53229,47,24
4660,22818,53199,49,23
4661,22805,53222,48,22
4662,22813,53208,49,23
4663,22807,53218,50,24
4664,22812,53211,48,24
4665,22806,53216,48,21
4666,22809,53219,49,22
4667,22810,53221,47,24
4668,22811,53234,48,22
4669,22817,53225,48,23
4670,22815,53232,48,22
4671,22821,53221,49,22
4672,22818,53217,48,22
4673,22818,53218,47,22
4674,22819,53218,47,22
4675,22820,53212,48,23
4676,22816,53209,48,23
4677,22817,53210,49,21
4678,22814,53212,49,23
4679,22814,53218,49,22
4680,22816,53215,47,23
4681,22815,53220,49,22
4682,22817,53220,48,23
4683,22819,53222,48,23
4684,22825,53211,48,24
4685,22821,53223,47,23
4686,22826,53211,47,23
4687,22818,53225,47,22
4688,22826,53210,48,21
4689,22819,53230,48,22
4690,22823,53215,47,24
4691,22822,53225,47,23
4692,22824,53205,47,24
4693,22817,53232,49,23
4694,22826,53215,46,25
4695,22820,53229,49,25
4696,22823,53233,49,23
4697,22825,53228,50,25
4698,22824,53228,49,25
4699,22825,53238,48,23
4700,22831,53230,48,24
4701,22828,53233,49,24
4702,22827,53225,49,26
4703,22823,53235,49,24
4704,22826,53236,46,24
4705,22827,53236,47,23
4706,22825,53237,45,23
4707,22822,53233,48,25
4708,22822,53247,48,25
4709,22830,53231,48,25
4710,22823,53250,47,27
4711,22831,53240,48,24
4712,22828,53247,48,25
4713,22832,53237,48,25
4714,22829,53246,48,23
4715,22834,53240,46,24
4716,22832,53245,46,24
4717,22834,53236,47,24
4718,22829,53237,47,26
4719,22830,53229,47,26
4720,22828,53224,47,25
4721,22823,53230,47,24
4722,22830,53247,45,23
4723,22840,53237,47,25
4724,22834,53222,48,23
4725,22833,53228,49,23
4726,22839,53222,49,24
4727,22835,53220,48,23
4728,22834,53226,50,21
4729,22839,53208,49,24
4730,22833,53214,48,22
4731,22838,53191,45,23
4732,22832,53209,46,23
4733,22839,53202,47,23
4734,22833,53203,47,23
4735,22832,53217,49,23
4736,22836,53215,48,24
4737,22836,53196,48,23
4738,22831,53216,46,24
4739,22842,53216,48,24
4740,22843,53205,48,23
4741,22840,53206,48,21
4742,22839,53203,48,23
4743,22840,53201,47,23
4744,22839,53204,48,24
4745,22840,53193,48,24
4746,22836,53196,47,25
4747,22839,53204,46,23
4748,22839,53199,48,23
4749,22837,53214,48,20
4750,22841,53213,48,23
4751,22841,53206,49,22
4752,22839,53218,49,22
4753,22845,53218,47,23
4754,22844,53204,46,24
4755,22841,53200,49,24
4756,22842,53213,49,23
4757,22847,53202,48,23
4758,22841,53202,49,22
4759,22839,53222,49,23
4760,22845,53202,49,21
4761,22837,53224,49,22
4762,22845,53219,48,22
4763,22840,53234,48,23
4764,22846,53216,46,23
4765,22838,53235,47,22
4766,22848,53218,48,22
4767,22845,53229,49,23
4768,22850,53222,49,23
4769,22848,53231,48,24
4770,22854,53224,45,23
4771,22847,53228,48,24
4772,22847,53235,48,23
4773,22848,53222,49,23
4774,22843,53237,48,24
4775,22849,53217,49,22
4776,22841,53238,49,25
4777,22851,53226,51,22
4778,22846,53235,48,23
4779,22850,53229,46,25
4780,22849,53240,47,22
4781,22855,53226,48,23
4782,22850,53236,48,25
4783,22858,53221,48,23
4784,22853,53225,47,24
4785,22854,53218,48,23
4786,22851,53207,46,24
4787,22845,53209,49,24
4788,22846,53225,46,24
4789,22848,53223,47,24
4790,22849,53220,48,23
4791,22846,53234,49,25
4792,22849,53224,49,25
4793,22845,53238,47,24
4794,22852,53232,48,24
4795,22852,53237,46,24
4796,22854,53231,47,22
4797,22850,53239,47,25
4798,22854,53220,46,23
4799,22847,53241,47,24
4800,22854,53218,48,23
4801,22843,53240,47,24
4802,22854,53224,46,23
4803,22844,53225,47,24
4804,22843,53226,48,23
4805,22843,53240,48,23
4806,22848,53236,49,23
4807,22842,53250,49,24
4808,22845,53245,47,24
4809,22844,53261,48,24
4810,22847,53259,49,23
4811,22843,53262,46,23
4812,22842,53276,47,24
4813,22845,53267,48,22
4814,22842,53273,48,25
4815,22843,53264,48,24
4816,22836,53277,48,23
4817,22841,53266,47,24
4818,22833,53294,48,23
4819,22838,53306,48,24
4820,22841,53300,49,25
4821,22836,53303,50,22
4822,22834,53295,48,23
4823,22833,53309,50,23
4824,22838,53296,48,23
4825,22830,53304,47,23
4826,22833,53297,48,24
4827,22830,53310,46,23
4828,22835,53294,47,22
4829,22825,53303,49,23
4830,22826,53292,47,23
4831,22820,53301,48,20
4832,22822,53300,48,23
4833,22822,53309,47,23
4834,22823,53324,46,21
4835,22827,53315,49,21
4836,22822,53316,48,22
4837,22823,53307,49,23
4838,22820,53297,49,23
4839,22818,53302,48,23
4840,22821,53290,48,24
4841,22817,53296,48,23
4842,22817,53280,48,22
4843,22814,53293,45,22
4844,22820,53270,47,23
4845,22809,53281,48,22
4846,22812,53260,48,23
4847,22803,53270,49,23
4848,22810,53262,47,23
4849,22808,53261,50,24
4850,22807,53248,46,23
4851,22804,53249,48,23
4852,22806,53248,49,24
4853,22808,53232,49,23
4854,22804,53234,48,25
4855,22806,53204,47,26
4856,22795,53220,48,23
4857,22801,53199,49,24
4858,22794,53208,48,24
4859,22797,53211,46,24
4860,22795,53205,47,24
4861,22792,53195,47,23
4862,22789,53221,49,23
4863,22798,53212,48,24
4864,22789,53213,49,23
4865,22791,53210,47,23
4866,22792,53196,46,24
4867,22792,53193,49,24
4868,22791,53193,49,23
4869,22790,53193,48,23
4870,22785,53184,47,21
4871,22782,53182,48,23
4872,22782,53187,49,22
4873,22780,53191,47,22
4874,22781,53184,48,23
4875,22778,53185,47,23
4876,22781,53169,48,22
4877,22774,53178,46,22
4878,22781,53172,49,24
4879,22781,53178,48,22
4880,22780,53161,47,23
4881,22775,53166,48,22
4882,22777,53148,47,22
4883,22774,53154,49,23
4884,22777,53131,50,23
4885,22765,53152,48,22
4886,22772,53138,48,23
4887,22766,53143,49,21
4888,22769,53151,49,23
4889,22769,53136,48,24
4890,22765,53145,49,22
4891,22769,53130,47,23
4892,22770,53131,46,24
4893,22772,53118,47,23
4894,22768,53115,46,23
4895,22767,53105,47,23
4896,22765,53103,48,23
4897,22764,53108,47,24
4898,22764,53102,48,25
4899,22764,53096,49,23
4900,22761,53100,47,24
4901,22762,53102,50,24
4902,22762,53096,48,23
4903,22759,53101,49,26
4904,22760,53087,50,24
4905,22756,53111,49,24
4906,22767,53102,50,24
4907,22761,53111,47,25
4908,22770,53084,47,24
4909,22761,53093,48,24
4910,22765,53079,50,25
4911,22758,53094,47,25
4912,22763,53079,47,23
4913,22757,53093,49,24
4914,22762,53088,47,24
4915,22755,53097,48,23
4916,22759,53097,49,25
4917,22756,53091,47,22
4918,22756,53101,50,23
4919,22759,53101,48,24
4920,22758,53100,50,23
4921,22756,53108,49,24
4922,22758,53119,49,23
4923,22763,53097,46,23
4924,22759,53097,47,24
4925,22758,53094,47,24
4926,22756,53081,47,24
4927,22749,53095,49,24
4928,22758,53077,48,25
4929,22751,53092,48,25
4930,22759,53087,48,25
4931,22759,53086,49,23
4932,22760,53066,49,25
4933,22756,53085,50,25
4934,22762,53064,48,25
4935,22756,53074,50,23
4936,22762,53057,48,23
4937,22759,53057,50,24
4938,22760,53043,48,24
4939,22755,53052,47,23
4940,22763,53020,47,23
4941,22749,53038,47,24
4942,22757,53044,48,25
4943,22755,53042,47,23
4944,22755,53053,47,25
4945,22755,53045,48,25
4946,22756,53047,46,24
4947,22757,53062,48,23
4948,22764,53041,48,23
4949,22756,53068,48,23
4950,22768,53039,49,25
4951,22754,53054,48,24
4952,22761,53042,47,23
4953,22759,53046,48,24
4954,22760,53035,46,24
4955,22757,53044,46,23
4956,22761,53033,47,25
4957,22756,53044,47,25
4958,22759,53035,47,24
4959,22757,53037,48,23
4960,22760,53024,49,22
4961,22759,53040,49,23
4962,22765,53027,47,24
4963,22763,53030,47,22
4964,22766,53029,47,24
4965,22764,53031,48,25
4966,22764,53026,47,24
4967,22762,53037,46,25
4968,22766,53026,47,23
4969,22761,53036,48,25
4970,22762,53033,47,24
4971,22759,53055,47,23
4972,22763,53048,46,22
4973,22760,53067,47,22
4974,22768,53067,48,25
4975,22764,53076,47,25
4976,22767,53074,48,24
4977,22768,53083,49,24
4978,22770,53093,47,23
4979,22771,53084,49,22
4980,22767,53087,48,23
4981,22767,53073,48,24
4982,22763,53077,46,24
4983,22764,53081,48,23
4984,22765,53081,48,23
4985,22765,53085,48,24
4986,22766,53079,48,24
4987,22766,53067,45,22
4988,22765,53081,48,24
4989,22771,53071,48,22
4990,22770,53076,47,23
4991,22775,53060,48,23
4992,22766,53065,47,24
4993,22773,53049,48,24
4994,22767,53040,47,23
4995,22767,53041,49,23
4996,22767,53039,48,22
4997,22767,53044,49,22
4998,22769,53037,49,23
4999,22767,53037,49,24
5000,22767,53046,48,24
5001,22771,53035,49,23
5002,22768,53042,49,23
5003,22770,53060,47,22
5004,22778,53052,48,23
5005,22772,53063,48,24
5006,22777,53056,50,21
5007,22772,53060,48,23
5008,22773,53060,48,24
5009,22775,53047,47,25
5010,22769,53067,48,23
5011,22772,53077,47,24
5012,22776,53068,49,22
5013,22769,53091,49,24
5014,22777,53075,48,23
5015,22770,53095,48,23
5016,22778,53078,49,22
5017,22771,53098,49,24
5018,22780,53082,49,24
5019,22773,53099,47,22
5020,22782,53089,46,23
5021,22774,53096,48,24
5022,22777,53100,46,22
5023,22777,53103,49,23
5024,22774,53101,47,23
5025,22770,53117,48,23
5026,22773,53133,46,22
5027,22778,53136,47,24
5028,22780,53121,48,23
5029,22770,53146,49,22
5030,22780,53135,49,24
5031,22776,53141,48,24
5032,22777,53149,49,26
5033,22782,53140,49,23
5034,22778,53141,48,24
5035,22777,53141,46,22
5036,22776,53147,49,23
5037,22776,53137,47,23
5038,22771,53143,49,23
5039,22775,53135,50,24
5040,22770,53149,49,25
5041,22774,53159,49,24
5042,22779,53159,47,25
5043,22780,53165,48,24
5044,22782,53146,49,24
5045,22775,53145,49,24
5046,22775,53152,48,22
5047,22779,53144,49,23
5048,22777,53147,48,21
5049,22781,53133,48,23
5050,22777,53133,48,22
5051,22778,53131,47,24
5052,22777,53121,48,22
5053,22771,53129,47,22
5054,22773,53128,46,22
5055,22774,53125,48,23
5056,22772,53139,48,22
5057,22779,53133,48,23
5058,22775,53133,46,24
5059,22778,53129,48,24
5060,22777,53140,49,24
5061,22781,53128,48,23
5062,22777,53125,48,23
5063,22775,53125,49,24
5064,22774,53123,48,24
5065,22775,53119,49,23
5066,22773,53122,49,24
5067,22776,53087,47,23
5068,22767,53114,48,25
5069,22779,53080,48,24
5070,22765,53108,49,22
5071,22778,53076,49,25
5072,22765,53106,48,24
5073,22782,53085,47,24
5074,22776,53093,47,23
5075,22783,53096,48,24
5076,22782,53074,48,24
5077,22774,53075,49,23
5078,22774,53071,49,26
5079,22773,53062,48,23
5080,22771,53065,47,26
5081,22771,53070,48,24
5082,22773,53049,49,23
5083,22767,53070,47,24
5084,22778,53043,46,22
5085,22770,53056,49,25
5086,22779,53036,49,24
5087,22771,53056,50,24
5088,22779,53024,47,23
5089,22770,53038,47,23
5090,22779,53016,48,23
5091,22772,53012,49,23
5092,22771,53006,48,23
5093,22769,53007,48,24
5094,22772,52998,50,25
5095,22768,53006,49,24
5096,22774,52985,50,24
5097,22767,52999,50,24
5098,22776,52981,49,24
5099,22767,52987,47,24
5100,22777,52972,49,26
5101,22772,52987,47,27
5102,22780,52965,49,25
5103,22772,52969,48,23
5104,22775,52956,48,25
5105,22772,52966,48,23
5106,22776,52951,47,23
5107,22771,52948,48,23
5108,22769,52946,50,24
5109,22769,52942,49,23
5110,22770,52932,48,24
5111,22769,52942,48,23
5112,22774,52917,49,24
5113,22768,52928,49,24
5114,22774,52911,49,24
5115,22771,52897,47,24
5116,22773,52900,47,23
5117,22776,52888,47,25
5118,22772,52894,48,24
5119,22775,52876,49,24
5120,22772,52869,47,24
5121,22773,52868,47,24
5122,22773,52858,45,23
5123,22772,52858,47,25
5124,22773,52845,50,23
5125,22770,52853,50,25
5126,22773,52849,49,23
5127,22777,52840,48,24
5128,22772,52836,47,23
5129,22773,52836,48,23
5130,22776,52821,47,24
5131,22773,52818,48,24
5132,22771,52831,48,23
5133,22778,52820,49,24
5134,22773,52815,48,23
5135,22770,52819,48,23
5136,22775,52803,49,25
5137,22768,52812,48,24
5138,22774,52792,49,24
5139,22767,52811,47,23
5140,22779,52816,49,24
5141,22781,52775,50,24
5142,22766,52809,49,25
5143,22781,52780,49,25
5144,22770,52792,48,23
5145,22777,52785,49,24
5146,22775,52772,50,24
5147,22772,52780,48,23
5148,22772,52783,47,24
5149,22775,52775,48,24
5150,22771,52776,48,23
5151,22771,52774,49,25
5152,22770,52787,48,24
5153,22772,52771,49,24
5154,22764,52795,50,25
5155,22774,52777,50,23
5156,22767,52814,47,23
5157,22778,52804,48,22
5158,22775,52810,47,24
5159,22779,52795,49,24
5160,22772,52803,47,25
5161,22776,52791,48,23
5162,22774,52790,48,23
5163,22771,52802,48,23
5164,22775,52787,47,22
5165,22769,52800,48,24
5166,22774,52789,47,23
5167,22769,52798,47,24
5168,22771,52803,47,25
5169,22773,52799,49,24
5170,22773,52792,50,23
5171,22773,52797,48,24
5172,22774,52799,48,23
5173,22775,52808,47,21
5174,22782,52807,47,23
5175,22782,52796,48,23
5176,22780,52788,50,24
5177,22777,52798,49,21
5178,22781,52780,49,23
5179,22776,52785,49,23
5180,22780,52779,49,23
5181,22778,52778,49,23
5182,22776,52780,47,23
5183,22780,52769,47,24
5184,22774,52779,48,22
5185,22781,52783,49,23
5186,22781,52779,48,22
5187,22781,52786,46,24
5188,22785,52776,49,23
5189,22784,52778,47,22
5190,22784,52770,46,23
5191,22783,52779,47,23
5192,22784,52772,49,23
5193,22781,52784,48,23
5194,22784,52771,49,24
5195,22779,52784,50,23
5196,22786,52771,50,23
5197,22776,52804,48,23
5198,22788,52787,49,23
5199,22777,52801,46,24
5200,22782,52815,47,24
5201,22787,52811,48,22
5202,22786,52825,48,23
5203,22790,52815,49,23
5204,22786,52825,47,23
5205,22790,52813,48,22
5206,22786,52823,49,24
5207,22788,52835,46,22
5208,22787,52834,47,23
5209,22786,52838,48,22
5210,22783,52845,49,22
5211,22783,52848,50,22
5212,22784,52858,48,21
5213,22784,52862,48,21
5214,22786,52860,50,23
5215,22783,52865,50,23
5216,22785,52882,48,22
5217,22788,52884,47,23
5218,22789,52886,48,22
5219,22791,52887,49,22
5220,22789,52890,49,22
5221,22787,52902,49,22
5222,22792,52890,49,21
5223,22783,52912,48,23
5224,22791,52907,46,22
5225,22783,52910,48,23
5226,22784,52922,48,23
5227,22788,52915,47,24
5228,22784,52930,49,23
5229,22791,52916,50,21
5230,22787,52946,48,24
5231,22796,52914,47,23
5232,22786,52952,48,22
5233,22801,52940,48,23
5234,22798,52911,48,23
5235,22784,52939,48,23
5236,22797,52924,47,22
5237,22788,52938,48,21
5238,22795,52919,49,24
5239,22788,52921,47,23
5240,22789,52922,48,23
5241,22786,52930,48,24
5242,22791,52938,50,25
5243,22791,52932,49,24
5244,22787,52944,50,22
5245,22793,52931,49,24
5246,22786,52955,48,23
5247,22800,52943,48,24
5248,22795,52945,48,23
5249,22794,52950,48,23
5250,22798,52951,46,24
5251,22798,52946,45,24
5252,22795,52948,50,24
5253,22794,52940,48,23
5254,22790,52952,48,25
5255,22793,52955,48,24
5256,22791,52947,49,23
5257,22787,52969,47,24
5258,22797,52982,47,23
5259,22798,52985,48,23
5260,22800,52972,49,23
5261,22796,52989,48,22
