VAL,PPG1,PPG2,BIOZ1,BIOZ2
0,23792,32120,37,20
1,23754,20210,40,21
2,23752,20215,38,22
3,23750,20212,37,20
4,23742,20215,38,20
5,23741,20214,38,21
6,23741,20217,40,20
7,23739,20214,39,20
8,23729,20211,40,21
9,23723,20215,40,21
10,23723,20211,41,20
11,23721,20216,38,20
12,23726,20218,38,21
13,23721,20212,38,20
14,23713,20218,39,22
15,23716,20220,39,21
16,23712,20215,36,22
17,23706,20222,39,20
18,23711,20222,38,22
19,23709,20220,38,20
20,23706,20218,38,19
21,23700,20216,38,22
22,23696,20220,38,21
23,23697,20216,39,20
24,23695,20221,38,21
25,23699,20222,38,22
26,23701,20222,40,21
27,23703,20222,40,21
28,23709,20223,38,23
29,23709,20223,39,22
30,23706,20221,41,22
31,23702,20225,37,22
32,23709,20224,40,21
33,23706,20226,39,22
34,23710,20222,39,22
35,23707,20223,40,22
36,23706,20224,39,21
37,23707,20220,39,21
38,23707,20227,40,20
39,23714,20228,39,21
40,23711,20228,40,21
41,23705,20224,40,22
42,23701,20224,37,22
43,23704,20225,39,21
44,23701,20224,39,21
45,23700,20226,39,21
46,23699,20224,39,23
47,23700,20225,39,22
48,23698,20220,39,19
49,23689,20228,38,21
50,23692,20222,39,21
51,23683,20224,38,19
52,23684,20223,39,21
53,23688,20219,39,22
54,23683,20222,39,19
55,23685,20221,40,20
56,23687,20222,38,21
57,23687,20226,38,20
58,23693,20223,38,22
59,23691,20225,39,21
60,23692,20222,38,22
61,23690,20219,39,22
62,23688,20223,39,22
63,23686,20230,40,21
64,23688,20228,40,21
65,23685,20226,37,21
66,23686,20230,39,20
67,23688,20232,37,22
68,23695,20222,38,20
69,23684,20225,38,20
70,23690,20226,39,19
71,23696,20226,38,21
72,23694,20220,40,21
73,23692,20216,39,20
74,23686,20218,38,21
75,23687,20217,39,22
76,23695,20217,40,20
77,23695,20214,39,23
78,23699,20217,39,20
79,23706,20218,39,21
80,23712,20215,40,21
81,23713,20214,39,23
82,23713,20219,38,21
83,23723,20212,39,21
84,23723,20211,40,22
85,23725,20213,39,22
86,23727,20219,39,21
87,23736,20214,38,21
88,23736,20214,39,20
89,23746,20213,37,23
90,23744,20210,39,21
91,23741,20212,40,20
92,23737,20213,38,21
93,23736,20212,38,20
94,23734,20214,38,21
95,23729,20212,40,19
96,23713,20211,39,21
97,23703,20212,39,19
98,23700,20205,39,21
99,23691,20211,39,21
100,23694,20204,38,22
101,23689,20211,40,22
102,23693,20209,38,20
103,23693,20211,39,21
104,23693,20210,39,19
105,23690,20206,38,21
106,23681,20207,38,21
107,23680,20202,37,20
108,23677,20204,39,21
109,23676,20204,38,21
110,23673,20200,39,21
111,23670,20199,39,21
112,23676,20198,38,20
113,23686,20197,38,22
114,23695,20196,38,22
115,23699,20199,38,21
116,23716,20199,38,21
117,23723,20194,40,19
118,23729,20194,39,20
119,23727,20192,39,21
120,23720,20195,38,20
121,23727,20194,40,20
122,23732,20193,38,21
123,23732,20191,37,21
124,23731,20190,38,20
125,23729,20190,38,21
126,23739,20192,37,21
127,23747,20198,38,20
128,23760,20194,38,20
129,23760,20197,39,20
130,23764,20195,38,21
131,23764,20195,36,20
132,23767,20191,40,22
133,23761,20197,39,21
134,23764,20193,37,20
135,23760,20190,37,21
136,23760,20194,39,20
137,23765,20196,38,21
138,23768,20189,37,20
139,23764,20195,38,24
140,23765,20194,39,21
141,23769,20198,39,20
142,23763,20194,39,22
143,23753,20197,38,22
144,23752,20196,38,20
145,23743,20198,38,21
146,23740,20195,37,23
147,23731,20196,38,20
148,23720,20197,38,22
149,23718,20199,38,21
150,23715,20199,39,21
151,23711,20199,37,22
152,23705,20198,38,20
153,23702,20198,37,21
154,23697,20197,38,21
155,23692,20201,40,21
156,23697,20199,40,22
157,23690,20198,37,20
158,23689,20199,39,22
159,23694,20205,37,20
160,23704,20197,38,22
161,23694,20196,37,19
162,23690,20198,39,22
163,23695,20194,37,21
164,23693,20195,38,20
165,23697,20193,39,21
166,23698,20196,38,20
167,23707,20193,38,21
168,23708,20192,38,20
169,23711,20194,39,20
170,23717,20192,38,21
171,23715,20195,38,22
172,23718,20195,37,21
173,23720,20193,37,21
174,23716,20188,36,23
175,23710,20193,38,21
176,23714,20186,38,21
177,23705,20187,38,22
178,23710,20188,38,21
179,23712,20182,38,20
180,23707,20183,39,20
181,23710,20185,39,21
182,23717,20186,39,20
183,23714,20187,38,21
184,23716,20186,38,20
185,23719,20185,37,20
186,23715,20183,39,19
187,23719,20184,39,20
188,23722,20187,37,22
189,23732,20183,36,22
190,23728,20180,38,20
191,23730,20180,37,20
192,23733,20182,39,22
193,23737,20183,38,20
194,23737,20183,37,23
195,23736,20185,39,21
196,23735,20182,38,19
197,23729,20183,38,22
198,23731,20186,37,21
199,23727,20189,39,21
200,23728,20186,38,21
201,23723,20185,38,21
202,23720,20195,40,21
203,23727,20192,36,20
204,23716,20186,37,22
205,23706,20186,38,21
206,23704,20186,38,20
207,23704,20191,38,20
208,23708,20191,38,21
209,23705,20194,40,21
210,23704,20193,38,21
211,23703,20192,38,20
212,23701,20187,38,21
213,23692,20190,37,22
214,23687,20193,41,20
215,23692,20197,37,21
216,23698,20196,37,22
217,23694,20192,38,21
218,23696,20193,37,21
219,23703,20193,39,21
220,23708,20195,38,21
221,23719,20190,37,21
222,23715,20189,38,22
223,23711,20194,37,19
224,23719,20188,38,20
225,23712,20191,38,22
226,23717,20191,38,20
227,23718,20194,38,20
228,23721,20191,36,21
229,23720,20194,36,21
230,23730,20191,37,21
231,23729,20196,37,19
232,23735,20192,40,19
233,23727,20192,39,20
234,23723,20193,36,21
235,23722,20192,38,19
236,23712,20190,37,21
237,23704,20185,37,22
238,23698,20191,37,22
239,23702,20190,39,22
240,23702,20187,39,21
241,23699,20188,37,20
242,23695,20193,38,20
243,23703,20189,38,22
244,23697,20185,37,22
245,23696,20190,37,20
246,23698,20189,39,21
247,23689,20187,37,20
248,23689,20196,39,21
249,23697,20183,38,20
250,23685,20191,38,22
251,23687,20191,39,19
252,23690,20190,38,21
253,23691,20193,38,22
254,23696,20193,37,21
255,23693,20191,39,20
256,23694,20190,39,22
257,23695,20196,37,20
258,23701,20187,38,22
259,23691,20188,38,21
260,23689,20185,40,22
261,23686,20188,37,21
262,23692,20186,37,21
263,23690,20188,39,21
264,23692,20185,39,21
265,23687,20187,37,19
266,23687,20185,37,20
267,23693,20189,39,20
268,23694,20186,37,21
269,23695,20188,37,21
270,23694,20188,38,21
271,23695,20187,39,21
272,23696,20186,38,22
273,23698,20187,38,21
274,23694,20187,38,22
275,23694,20183,38,19
276,23691,20186,39,20
277,23699,20190,40,21
278,23705,20189,38,22
279,23704,20190,38,20
280,23706,20184,38,22
281,23702,20181,38,23
282,23701,20184,38,22
283,23699,20179,38,21
284,23694,20181,38,22
285,23695,20186,38,20
286,23702,20180,39,20
287,23699,20177,38,22
288,23691,20183,39,21
289,23696,20185,38,22
290,23700,20182,38,21
291,23698,20183,37,22
292,23696,20182,39,20
293,23693,20183,38,21
294,23698,20182,38,20
295,23696,20186,39,21
296,23705,20182,39,21
297,23702,20183,38,22
298,23701,20178,38,20
299,23694,20183,38,21
300,23702,20187,40,22
301,23707,20181,39,21
302,23700,20184,38,21
303,23702,20185,37,22
304,23704,20189,39,20
305,23711,20187,40,20
306,23709,20182,38,20
307,23704,20188,37,22
308,23709,20184,39,21
309,23704,20186,38,21
310,23707,20187,38,20
311,23707,20179,37,23
312,23694,20187,38,22
313,23701,20182,38,21
314,23697,20187,39,21
315,23700,20181,39,21
316,23693,20182,39,22
317,23692,20183,37,20
318,23693,20188,39,23
319,23698,20186,39,20
320,23698,20183,38,21
321,23688,20186,38,19
322,23689,20187,39,22
323,23686,20184,37,20
324,23683,20193,39,23
325,23687,20189,39,20
326,23679,20186,39,22
327,23678,20180,39,22
328,23671,20185,37,21
329,23679,20184,38,19
330,23675,20180,38,20
331,23672,20188,39,21
332,23681,20184,40,21
333,23682,20184,38,21
334,23682,20190,37,21
335,23687,20184,39,21
336,23678,20182,38,19
337,23681,20182,38,20
338,23684,20185,39,22
339,23686,20182,38,19
340,23682,20182,38,21
341,23684,20183,39,21
342,23689,20184,38,22
343,23690,20186,39,21
344,23688,20185,39,21
345,23685,20186,37,21
346,23683,20189,37,21
347,23691,20189,39,21
348,23685,20188,37,20
349,23678,20184,38,21
350,23673,20191,37,20
351,23678,20192,38,21
352,23683,20191,39,22
353,23675,20187,38,21
354,23668,20189,39,20
355,23660,20191,39,22
356,23664,20190,38,21
357,23657,20192,38,19
358,23652,20192,38,20
359,23649,20187,39,19
360,23642,20192,40,20
361,23642,20188,38,22
362,23642,20191,37,21
363,23645,20189,38,21
364,23644,20193,39,21
365,23645,20191,39,22
366,23648,20194,38,22
367,23645,20193,39,20
368,23641,20187,39,21
369,23638,20191,37,21
370,23644,20191,37,20
371,23645,20193,40,21
372,23645,20195,39,20
373,23644,20192,39,20
374,23643,20195,39,22
375,23650,20191,38,23
376,23646,20190,38,21
377,23644,20194,37,20
378,23647,20193,39,22
379,23646,20194,38,22
380,23644,20196,39,20
381,23645,20195,38,21
382,23641,20201,39,22
383,23643,20195,37,23
384,23641,20196,37,20
385,23642,20194,39,20
386,23642,20201,38,21
387,23644,20196,37,21
388,23640,20195,37,21
389,23641,20199,37,21
390,23642,20201,37,22
391,23645,20194,40,20
392,23637,20200,39,21
393,23644,20202,37,21
394,23647,20203,39,21
395,23652,20198,38,21
396,23643,20197,39,20
397,23642,20203,39,21
398,23653,20200,39,20
399,23657,20203,37,20
400,23660,20202,38,21
401,23653,20197,37,23
402,23651,20197,38,21
403,23652,20199,38,21
404,23656,20201,37,22
405,23660,20203,38,22
406,23657,20205,38,20
407,23660,20205,37,23
408,23661,20209,38,21
409,23664,20206,38,21
410,23661,20203,38,23
411,23657,20205,38,22
412,23659,20203,38,21
413,23661,20202,39,21
414,23657,20205,38,20
415,23658,20203,38,22
416,23655,20202,37,20
417,23655,20200,38,20
418,23653,20205,39,21
419,23658,20196,37,20
420,23646,20202,39,20
421,23651,20201,38,20
422,23654,20194,38,20
423,23650,20191,37,21
424,23648,20194,38,20
425,23654,20197,38,21
426,23655,20197,38,21
427,23663,20194,38,20
428,23660,20193,38,20
429,23655,20194,39,21
430,23657,20196,38,21
431,23662,20194,38,21
432,23663,20192,38,21
433,23660,20191,38,20
434,23658,20191,38,21
435,23664,20189,38,20
436,23661,20192,37,20
437,23671,20186,39,20
438,23665,20186,39,20
439,23665,20188,38,22
440,23669,20185,37,23
441,23670,20190,37,20
442,23674,20187,38,20
443,23670,20179,37,21
444,23662,20188,38,21
445,23671,20183,39,21
446,23668,20188,39,21
447,23675,20187,40,21
448,23673,20185,38,23
449,23672,20189,38,22
450,23677,20179,39,21
451,23672,20185,39,21
452,23673,20183,38,21
453,23670,20183,38,21
454,23671,20175,38,21
455,23667,20179,39,23
456,23673,20181,39,21
457,23671,20182,38,21
458,23676,20180,38,21
459,23677,20176,38,22
460,23680,20175,38,20
461,23672,20178,37,20
462,23675,20181,35,21
463,23679,20177,39,21
464,23675,20177,39,21
465,23676,20182,38,19
466,23677,20178,37,21
467,23673,20181,38,22
468,23674,20182,39,20
469,23681,20179,38,22
470,23680,20176,38,20
471,23677,20172,38,21
472,23670,20179,38,21
473,23676,20178,39,22
474,23679,20184,39,20
475,23681,20182,38,20
476,23678,20180,39,20
477,23674,20177,38,21
478,23674,20179,38,21
479,23678,20177,38,20
480,23673,20176,39,22
481,23672,20178,37,22
482,23674,20177,38,22
483,23674,20176,39,20
484,23677,20176,38,22
485,23672,20177,37,21
486,23675,20177,40,20
487,23675,20180,39,22
488,23683,20180,40,20
489,23685,20178,39,21
490,23682,20183,39,22
491,23687,20177,39,23
492,23684,20178,38,20
493,23690,20177,38,19
494,23689,20181,39,21
495,23691,20179,38,22
496,23690,20174,38,22
497,23686,20178,38,20
498,23689,20180,39,21
499,23692,20179,37,21
500,23689,20186,38,21
501,23701,20183,39,22
502,23699,20180,39,20
503,23695,20176,39,20
504,23692,20177,38,20
505,23690,20179,38,22
506,23692,20175,38,21
507,23690,20180,39,21
508,23694,20178,37,21
509,23687,20175,38,21
510,23678,20178,38,21
511,23685,20176,38,19
512,23682,20172,38,19
513,23676,20176,38,21
514,23683,20177,39,22
515,23681,20175,37,22
516,23686,20171,38,22
517,23684,20173,40,23
518,23680,20176,39,20
519,23685,20174,38,21
520,23685,20175,39,21
521,23685,20178,38,23
522,23684,20175,38,21
523,23684,20181,38,22
524,23690,20181,38,20
525,23695,20184,37,20
526,23702,20185,39,22
527,23697,20187,39,21
528,23691,20186,38,22
529,23684,20185,38,22
530,23678,20182,39,22
531,23668,20185,38,22
532,23659,20178,38,21
533,23638,20185,37,21
534,23637,20178,39,21
535,23630,20181,38,20
536,23634,20180,39,20
537,23638,20180,40,21
538,23646,20178,37,22
539,23652,20173,38,20
540,23657,20175,38,21
541,23662,20167,39,21
542,23661,20169,39,21
543,23673,20168,40,20
544,23680,20166,39,21
545,23688,20169,38,22
546,23693,20164,40,22
547,23694,20166,39,21
548,23706,20171,37,21
549,23724,20168,39,20
550,23731,20172,38,19
551,23743,20173,38,22
552,23752,20176,39,21
553,23759,20173,38,21
554,23756,20178,37,21
555,23754,20173,40,22
556,23738,20176,38,20
557,23733,20171,39,23
558,23714,20175,37,21
559,23713,20179,40,21
560,23711,20182,39,21
561,23710,20186,38,22
562,23714,20187,36,22
563,23714,20185,40,21
564,23710,20187,38,22
565,23703,20187,39,22
566,23693,20187,37,20
567,23690,20188,38,20
568,23687,20187,38,20
569,23678,20189,39,21
570,23669,20184,37,19
571,23661,20194,40,21
572,23673,20193,38,22
573,23672,20192,38,20
574,23670,20195,39,22
575,23668,20195,38,20
576,23672,20195,38,21
577,23672,20195,40,20
578,23676,20197,38,21
579,23674,20203,38,21
580,23679,20195,37,21
581,23673,20197,39,22
582,23676,20194,39,21
583,23671,20197,39,21
584,23673,20196,39,22
585,23674,20198,39,22
586,23680,20201,37,21
587,23687,20194,38,22
588,23677,20195,39,22
589,23678,20192,40,21
590,23677,20190,37,21
591,23682,20187,38,21
592,23682,20179,38,22
593,23672,20184,38,21
594,23683,20174,38,21
595,23682,20176,37,20
596,23690,20170,38,21
597,23693,20171,39,20
598,23695,20172,39,21
599,23703,20170,39,20
600,23708,20167,39,21
601,23721,20173,39,21
602,23734,20170,38,20
603,23734,20172,38,22
604,23734,20171,38,21
605,23742,20180,37,22
606,23757,20177,38,22
607,23753,20177,40,21
608,23751,20184,40,22
609,23757,20178,39,21
610,23757,20186,39,21
611,23764,20180,39,21
612,23755,20186,40,21
613,23751,20187,38,21
614,23745,20188,39,22
615,23740,20191,39,20
616,23733,20188,38,19
617,23721,20193,38,19
618,23721,20190,40,20
619,23715,20195,39,21
620,23716,20194,39,20
621,23706,20195,38,21
622,23696,20196,38,20
623,23690,20195,37,22
624,23687,20196,39,21
625,23678,20197,39,20
626,23676,20195,38,22
627,23672,20195,40,21
628,23675,20199,39,21
629,23679,20201,39,22
630,23683,20197,41,20
631,23675,20198,38,21
632,23677,20196,38,20
633,23675,20197,38,21
634,23673,20198,39,21
635,23675,20198,38,22
636,23673,20194,39,22
637,23672,20198,38,22
638,23678,20196,38,20
639,23680,20200,39,21
640,23688,20202,37,21
641,23691,20200,38,21
642,23693,20200,40,20
643,23699,20204,39,20
644,23699,20199,39,22
645,23692,20197,39,21
646,23694,20201,38,21
647,23700,20200,39,20
648,23700,20196,38,21
649,23694,20199,39,20
650,23693,20202,39,21
651,23701,20200,39,21
652,23701,20201,39,21
653,23702,20204,38,23
654,23705,20198,37,22
655,23696,20202,38,21
656,23705,20203,38,23
657,23705,20204,39,22
658,23704,20203,39,22
659,23702,20199,38,22
660,23701,20200,39,21
661,23702,20199,37,20
662,23706,20200,37,20
663,23707,20197,38,21
664,23704,20197,38,21
665,23706,20195,38,20
666,23704,20196,37,20
667,23705,20191,39,21
668,23695,20199,38,22
669,23696,20192,40,21
670,23688,20196,38,21
671,23695,20189,39,21
672,23679,20192,38,22
673,23684,20194,38,21
674,23684,20193,39,21
675,23688,20195,37,20
676,23694,20193,38,21
677,23690,20188,39,20
678,23687,20194,38,21
679,23694,20187,39,21
680,23693,20187,38,22
681,23690,20186,39,21
682,23689,20193,39,21
683,23694,20186,39,21
684,23691,20188,38,21
685,23697,20189,39,21
686,23696,20182,38,21
687,23691,20182,38,20
688,23693,20186,39,19
689,23704,20184,38,21
690,23700,20186,39,23
691,23705,20188,40,19
692,23711,20183,38,22
693,23702,20186,37,22
694,23711,20186,39,20
695,23706,20182,40,21
696,23700,20185,37,22
697,23699,20186,38,22
698,23697,20185,38,22
699,23698,20182,38,22
700,23692,20188,38,21
701,23691,20188,37,22
702,23690,20187,39,22
703,23687,20192,40,21
704,23697,20189,38,23
705,23693,20190,38,21
706,23691,20188,39,21
707,23687,20191,38,22
708,23696,20190,40,20
709,23691,20190,40,22
710,23691,20190,39,21
711,23694,20183,37,21
712,23692,20187,39,21
713,23698,20189,40,22
714,23702,20188,40,22
715,23696,20190,37,21
716,23701,20193,39,21
717,23711,20198,38,22
718,23714,20197,38,21
719,23715,20197,37,22
720,23708,20191,39,21
721,23703,20195,38,23
722,23707,20194,41,21
723,23703,20196,38,20
724,23704,20201,37,21
725,23706,20200,38,23
726,23703,20202,37,20
727,23700,20202,40,21
728,23694,20199,39,20
729,23680,20202,38,21
730,23678,20206,39,20
731,23686,20201,38,21
732,23692,20201,39,22
733,23693,20211,39,19
734,23696,20207,39,21
735,23685,20213,38,21
736,23683,20208,38,21
737,23669,20208,40,20
738,23660,20207,39,21
739,23654,20206,39,21
740,23648,20206,37,21
741,23648,20202,39,20
742,23641,20206,38,22
743,23639,20197,39,22
744,23629,20200,39,21
745,23628,20193,39,20
746,23614,20191,38,21
747,23610,20191,38,21
748,23610,20192,40,21
749,23618,20192,37,22
750,23629,20183,39,23
751,23628,20189,38,22
752,23641,20178,36,21
753,23643,20178,38,19
754,23654,20176,38,21
755,23663,20172,38,21
756,23665,20169,38,20
757,23662,20176,38,23
758,23673,20168,39,21
759,23669,20172,38,22
760,23682,20169,37,21
761,23683,20175,39,21
762,23695,20170,38,20
763,23703,20172,38,21
764,23714,20168,37,20
765,23708,20172,37,22
766,23707,20173,39,21
767,23705,20173,38,20
768,23699,20172,39,21
769,23694,20168,37,20
770,23687,20172,39,20
771,23688,20174,39,20
772,23687,20170,37,22
773,23690,20173,39,21
774,23695,20166,38,19
775,23687,20170,37,19
776,23690,20168,39,21
777,23685,20165,37,20
778,23680,20166,38,21
779,23680,20168,38,21
780,23681,20164,39,19
781,23675,20162,39,20
782,23674,20162,38,20
783,23684,20159,38,21
784,23685,20163,36,21
785,23694,20160,37,20
786,23697,20160,38,21
787,23699,20161,39,22
788,23704,20164,39,22
789,23712,20164,38,21
790,23709,20166,38,20
791,23707,20164,37,21
792,23710,20162,38,22
793,23709,20165,36,21
794,23712,20160,38,22
795,23712,20164,39,18
796,23721,20163,38,22
797,23725,20163,39,21
798,23729,20167,38,20
799,23729,20162,39,20
800,23723,20163,38,22
801,23728,20166,39,19
802,23727,20164,37,22
803,23722,20163,38,19
804,23720,20163,36,23
805,23723,20159,37,21
806,23720,20165,39,22
807,23729,20167,37,21
808,23731,20160,39,21
809,23719,20166,39,21
810,23723,20167,37,22
811,23723,20162,38,22
812,23718,20157,37,21
813,23709,20166,37,20
814,23715,20163,38,23
815,23712,20164,38,20
816,23714,20166,39,20
817,23715,20168,37,22
818,23714,20162,39,22
819,23704,20161,40,21
820,23704,20162,37,20
821,23710,20163,38,21
822,23705,20160,37,22
823,23698,20167,36,21
824,23702,20164,37,20
825,23701,20162,37,20
826,23697,20167,38,21
827,23701,20164,37,19
828,23699,20162,36,21
829,23698,20161,37,22
830,23698,20161,39,20
831,23698,20159,38,22
832,23697,20165,39,21
833,23698,20164,38,21
834,23703,20157,38,21
835,23697,20163,37,22
836,23705,20163,38,20
837,23704,20163,38,21
838,23707,20157,37,19
839,23708,20154,36,21
840,23711,20159,37,20
841,23710,20159,36,20
842,23714,20158,36,21
843,23715,20158,40,21
844,23714,20158,38,20
845,23714,20153,40,23
846,23702,20154,38,21
847,23699,20157,37,21
848,23706,20157,37,21
849,23714,20157,38,22
850,23712,20158,37,22
851,23711,20157,37,22
852,23711,20152,38,23
853,23714,20158,37,20
854,23723,20157,38,21
855,23718,20149,36,20
856,23710,20151,38,22
857,23712,20147,36,22
858,23710,20149,36,21
859,23708,20152,38,20
860,23708,20145,38,19
861,23708,20153,37,20
862,23720,20152,38,20
863,23725,20151,38,21
864,23729,20155,39,21
865,23733,20150,38,19
866,23726,20150,38,20
867,23726,20151,39,21
868,23728,20146,38,20
869,23715,20151,37,21
870,23718,20146,39,20
871,23716,20156,38,21
872,23730,20153,37,21
873,23732,20152,37,21
874,23733,20154,39,21
875,23736,20151,39,21
876,23738,20154,37,21
877,23742,20156,37,21
878,23742,20152,36,21
879,23732,20149,37,20
880,23733,20155,39,21
881,23743,20154,37,21
882,23745,20152,38,21
883,23744,20150,37,21
884,23746,20155,39,22
885,23749,20153,38,20
886,23750,20156,36,21
887,23755,20154,38,21
888,23749,20153,37,21
889,23741,20152,38,21
890,23740,20154,37,21
891,23742,20158,37,20
892,23745,20158,38,21
893,23744,20155,38,19
894,23737,20156,39,21
895,23734,20163,38,21
896,23743,20163,39,22
897,23742,20162,38,23
898,23735,20162,39,19
899,23733,20159,39,21
900,23728,20164,37,20
901,23731,20160,38,21
902,23722,20160,39,22
903,23717,20161,37,22
904,23717,20159,38,19
905,23719,20163,37,22
906,23716,20164,37,21
907,23718,20163,38,21
908,23714,20167,38,21
909,23718,20170,38,22
910,23719,20171,37,22
911,23717,20172,39,21
912,23709,20173,38,21
913,23706,20172,38,20
914,23704,20179,38,21
915,23712,20170,36,22
916,23697,20173,37,22
917,23699,20182,40,20
918,23709,20180,37,21
919,23708,20183,38,21
920,23706,20185,37,20
921,23704,20186,37,20
922,23698,20180,37,20
923,23690,20183,38,20
924,23696,20182,39,20
925,23695,20186,38,22
926,23698,20186,37,20
927,23699,20182,37,20
928,23698,20186,38,22
929,23708,20182,38,22
930,23707,20179,37,20
931,23706,20178,38,20
932,23711,20181,37,22
933,23724,20182,37,20
934,23735,20176,37,20
935,23737,20178,38,20
936,23750,20174,37,21
937,23755,20178,37,19
938,23768,20176,37,22
939,23766,20179,37,22
940,23764,20173,38,21
941,23761,20173,36,22
942,23765,20176,38,21
943,23779,20178,38,20
944,23786,20179,39,21
945,23788,20185,37,22
946,23794,20182,37,21
947,23787,20185,38,21
948,23790,20187,37,20
949,23788,20185,37,22
950,23780,20186,37,20
951,23778,20188,39,20
952,23772,20194,38,22
953,23778,20196,37,21
954,23768,20193,37,21
955,23763,20192,37,22
956,23757,20192,37,21
957,23752,20193,37,20
958,23746,20199,37,20
959,23741,20200,38,22
960,23736,20201,36,20
961,23732,20200,37,21
962,23726,20205,37,20
963,23726,20210,37,20
964,23728,20203,36,21
965,23716,20208,37,21
966,23721,20209,36,20
967,23725,20207,38,21
968,23721,20207,38,19
969,23724,20213,37,21
970,23735,20217,37,21
971,23740,20209,38,23
972,23724,20208,37,20
973,23701,20205,37,20
974,23684,20195,39,21
975,23652,20183,38,20
976,23620,20172,37,20
977,23593,20156,38,21
978,23557,20136,39,20
979,23525,20130,37,22
980,23509,20121,38,21
981,23484,20118,38,20
982,23465,20126,38,22
983,23462,20121,38,20
984,23451,20120,37,20
985,23441,20127,38,21
986,23439,20128,38,20
987,23423,20133,37,21
988,23413,20130,37,22
989,23393,20140,37,19
990,23383,20142,39,21
991,23364,20150,37,20
992,23352,20158,37,19
993,23350,20161,38,19
994,23357,20170,38,20
995,23377,20177,38,21
996,23389,20186,37,20
997,23397,20192,37,22
998,23406,20196,38,20
999,23420,20202,37,22
