VAL,PPG1,PPG2,BIOZ1,BIOZ2
0,25275,18255,36,0
1,25278,18265,37,0
2,25282,18273,36,0
3,25285,18282,37,0
4,25289,18275,36,0
5,25278,18281,36,0
6,25290,18275,37,0
7,25284,18275,35,0
8,25283,18271,37,0
9,25281,18268,36,0
10,25282,18268,35,0
11,25284,18261,36,0
12,25283,18257,36,0
13,25279,18255,37,0
14,25279,18255,36,0
15,25275,18248,35,0
16,25276,18243,36,0
17,25277,18249,37,0
18,25283,18252,36,0
19,25290,18243,36,0
20,25284,18247,36,0
21,25280,18247,35,0
22,25283,18238,37,0
23,25272,18248,36,0
24,25285,18244,37,0
25,25276,18236,37,0
26,25270,18238,36,0
27,25268,18239,36,0
28,25265,18246,37,0
29,25271,18244,38,0
30,25269,18253,38,0
31,25271,18250,36,0
32,25270,18250,37,0
33,25273,18252,37,0
34,25273,18250,38,0
35,25274,18246,35,0
36,25272,18245,36,0
37,25271,18246,37,0
38,25272,18249,36,0
39,25275,18243,36,0
40,25267,18245,36,0
41,25273,18242,35,0
42,25270,18238,37,0
43,25265,18245,37,0
44,25277,18236,36,0
45,25272,18235,36,0
46,25274,18237,36,0
47,25282,18225,36,0
48,25271,18222,37,0
49,25275,18218,36,0
50,25275,18214,38,0
51,25272,18211,36,0
52,25278,18199,35,0
53,25273,18201,36,0
54,25274,18197,35,0
55,25269,18191,37,0
56,25262,18195,36,0
57,25265,18194,38,0
58,25259,18199,38,0
59,25261,18205,37,0
60,25260,18211,37,0
61,25257,18227,37,0
62,25268,18237,36,0
63,25270,18259,37,0
64,25278,18274,37,0
65,25280,18279,36,0
66,25277,18295,37,0
67,25284,18295,36,0
68,25285,18294,37,0
69,25282,18293,37,0
70,25287,18284,36,0
71,25285,18286,37,0
72,25288,18284,37,0
73,25291,18276,38,0
74,25286,18275,36,0
75,25289,18263,37,0
76,25281,18266,36,0
77,25289,18259,36,0
78,25285,18251,35,0
79,25283,18246,36,0
80,25288,18241,36,0
81,25285,18242,38,0
82,25290,18236,38,0
83,25283,18235,36,0
84,25275,18232,36,0
85,25272,18229,37,0
86,25270,18235,37,0
87,25270,18238,36,0
88,25267,18237,35,0
89,25267,18241,36,0
90,25265,18242,37,0
91,25265,18248,36,0
92,25271,18245,37,0
93,25269,18241,37,0
94,25264,18248,37,0
95,25271,18250,37,0
96,25272,18253,38,0
97,25276,18254,36,0
98,25276,18248,37,0
99,25271,18256,35,0
100,25277,18257,37,0
101,25279,18242,37,0
102,25263,18249,36,0
103,25273,18241,36,0
104,25269,18240,37,0
105,25271,18237,37,0
106,25271,18232,36,0
107,25267,18239,37,0
108,25274,18234,35,0
109,25272,18232,37,0
110,25273,18232,36,0
111,25273,18227,37,0
112,25265,18225,36,0
113,25268,18223,36,0
114,25268,18225,36,0
115,25269,18230,37,0
116,25275,18224,37,0
117,25270,18225,38,0
118,25273,18230,37,0
119,25275,18221,36,0
120,25268,18222,38,0
121,25272,18225,38,0
122,25272,18227,37,0
123,25269,18237,36,0
124,25277,18236,37,0
125,25270,18248,35,0
126,25280,18256,37,0
127,25281,18266,38,0
128,25288,18268,37,0
129,25286,18266,37,0
130,25284,18272,34,0
131,25278,18267,35,0
132,25275,18268,36,0
133,25284,18270,37,0
134,25287,18263,36,0
135,25282,18263,35,0
136,25286,18263,35,0
137,25291,18255,37,0
138,25285,18253,36,0
139,25286,18245,37,0
140,25282,18248,34,0
141,25287,18236,38,0
142,25279,18245,37,0
143,25287,18236,36,0
144,25284,18233,36,0
145,25289,18234,35,0
146,25296,18233,36,0
147,25294,18225,37,0
148,25284,18229,38,0
149,25289,18215,37,0
150,25275,18218,38,0
151,25280,18213,36,0
152,25270,18216,38,0
153,25269,18224,37,0
154,25278,18224,37,0
155,25274,18226,37,0
156,25277,18220,35,0
157,25271,18219,37,0
158,25273,18223,37,0
159,25273,18220,36,0
160,25274,18220,37,0
161,25275,18218,36,0
162,25277,18224,36,0
163,25280,18228,36,0
164,25287,18226,37,0
165,25286,18227,37,0
166,25290,18220,36,0
167,25285,18215,38,0
168,25278,18218,36,0
169,25293,18205,35,0
170,25276,18206,38,0
171,25283,18206,36,0
172,25288,18202,35,0
173,25284,18200,36,0
174,25285,18194,37,0
175,25280,18197,36,0
176,25280,18199,38,0
177,25283,18192,37,0
178,25272,18203,37,0
179,25280,18194,36,0
180,25275,18196,37,0
181,25278,18202,37,0
182,25289,18202,37,0
183,25287,18206,37,0
184,25290,18200,35,0
185,25289,18193,36,0
186,25286,18203,37,0
187,25293,18204,36,0
188,25286,18220,37,0
189,25295,18229,37,0
190,25298,18237,36,0
191,25300,18244,36,0
192,25301,18250,37,0
193,25301,18261,36,0
194,25304,18261,37,0
195,25304,18256,36,0
196,25301,18262,36,0
197,25304,18252,37,0
198,25298,18252,35,0
199,25300,18243,36,0
200,25296,18237,37,0
201,25292,18240,37,0
202,25301,18233,38,0
203,25295,18227,36,0
204,25293,18230,38,0
205,25303,18221,37,0
206,25294,18222,37,0
207,25303,18215,37,0
208,25301,18210,36,0
209,25303,18209,37,0
210,25307,18206,36,0
211,25303,18204,37,0
212,25307,18197,37,0
213,25301,18198,37,0
214,25295,18195,35,0
215,25288,18188,37,0
216,25283,18195,36,0
217,25292,18186,35,0
218,25275,18188,37,0
219,25274,18194,35,0
220,25281,18189,36,0
221,25275,18192,36,0
222,25275,18195,37,0
223,25282,18193,35,0
224,25279,18199,36,0
225,25288,18194,37,0
226,25282,18196,35,0
227,25279,18192,36,0
228,25282,18188,36,0
229,25280,18189,35,0
230,25286,18191,36,0
231,25287,18189,36,0
232,25284,18191,36,0
233,25286,18187,36,0
234,25287,18190,38,0
235,25289,18182,36,0
236,25284,18180,36,0
237,25283,18189,36,0
238,25294,18180,36,0
239,25279,18183,37,0
240,25288,18175,37,0
241,25283,18172,37,0
242,25280,18175,38,0
243,25285,18176,36,0
244,25283,18176,37,0
245,25290,18176,37,0
246,25295,18171,37,0
247,25290,18172,36,0
248,25290,18168,36,0
249,25289,18164,37,0
250,25292,18164,37,0
251,25291,18161,36,0
252,25286,18166,35,0
253,25288,18166,36,0
254,25282,18178,35,0
255,25291,18191,36,0
256,25298,18197,36,0
257,25293,18207,37,0
258,25298,18202,37,0
259,25292,18210,36,0
260,25297,18221,36,0
261,25303,18220,36,0
262,25300,18223,37,0
263,25307,18218,35,0
264,25303,18211,36,0
265,25294,18215,36,0
266,25303,18197,37,0
267,25292,18199,35,0
268,25304,18189,35,0
269,25297,18186,38,0
270,25295,18192,38,0
271,25304,18180,35,0
272,25298,18187,38,0
273,25309,18181,37,0
274,25310,18173,36,0
275,25307,18171,36,0
276,25305,18159,38,0
277,25293,18157,37,0
278,25291,18157,35,0
279,25292,18157,37,0
280,25292,18161,36,0
281,25285,18158,36,0
282,25275,18155,35,0
283,25268,18158,36,0
284,25273,18160,35,0
285,25271,18169,35,0
286,25279,18166,37,0
287,25282,18170,35,0
288,25281,18176,36,0
289,25280,18170,36,0
290,25274,18173,35,0
291,25282,18172,37,0
292,25279,18168,36,0
293,25277,18164,37,0
294,25281,18157,36,0
295,25279,18163,36,0
296,25286,18159,37,0
297,25281,18157,37,0
298,25286,18153,37,0
299,25286,18143,36,0
300,25278,18141,36,0
301,25282,18141,36,0
302,25288,18136,36,0
303,25288,18132,36,0
304,25282,18128,36,0
305,25277,18125,38,0
306,25274,18122,36,0
307,25274,18119,36,0
308,25270,18124,36,0
309,25273,18113,36,0
310,25264,18113,38,0
311,25267,18117,38,0
312,25270,18111,36,0
313,25267,18116,36,0
314,25272,18115,36,0
315,25270,18117,36,0
316,25275,18116,36,0
317,25274,18116,37,0
318,25277,18117,35,0
319,25276,18127,36,0
320,25280,18127,35,0
321,25277,18135,36,0
322,25288,18139,38,0
323,25287,18153,37,0
324,25292,18159,36,0
325,25297,18160,35,0
326,25295,18158,36,0
327,25294,18147,37,0
328,25283,18150,35,0
329,25294,18137,35,0
330,25289,18125,37,0
331,25287,18125,37,0
332,25296,18111,37,0
333,25293,18104,36,0
334,25288,18093,37,0
335,25285,18088,37,0
336,25287,18085,36,0
337,25293,18074,37,0
338,25290,18075,37,0
339,25296,18075,37,0
340,25302,18064,38,0
341,25292,18057,36,0
342,25292,18052,36,0
343,25284,18058,37,0
344,25287,18055,36,0
345,25282,18056,36,0
346,25282,18049,37,0
347,25276,18046,37,0
348,25271,18046,37,0
349,25267,18049,37,0
350,25275,18044,37,0
351,25270,18047,36,0
352,25270,18050,36,0
353,25272,18043,37,0
354,25267,18041,37,0
355,25270,18038,36,0
356,25265,18037,37,0
357,25264,18032,36,0
358,25264,18024,37,0
359,25256,18034,36,0
360,25271,18032,35,0
361,25268,18031,35,0
362,25265,18031,37,0
363,25265,18033,35,0
364,25265,18029,36,0
365,25261,18032,35,0
366,25265,18025,37,0
367,25263,18025,38,0
368,25262,18023,36,0
369,25261,18023,35,0
370,25268,18017,37,0
371,25267,18024,36,0
372,25271,18025,38,0
373,25267,18017,35,0
374,25261,18022,38,0
375,25270,18017,36,0
376,25268,18011,37,0
377,25262,18014,37,0
378,25270,18006,37,0
379,25264,18006,37,0
380,25265,18005,37,0
381,25262,18003,37,0
382,25262,18008,36,0
383,25262,18008,35,0
384,25258,18008,36,0
385,25257,18017,37,0
386,25259,18031,37,0
387,25261,18037,36,0
388,25268,18044,36,0
389,25268,18057,36,0
390,25273,18059,36,0
391,25276,18059,37,0
392,25278,18056,37,0
393,25270,18050,35,0
394,25269,18047,35,0
395,25273,18044,36,0
396,25275,18031,36,0
397,25269,18030,37,0
398,25273,18022,38,0
399,25272,18016,36,0
400,25272,18012,36,0
401,25272,18005,37,0
402,25274,18001,37,0
403,25280,17996,37,0
404,25287,17992,37,0
405,25287,17990,36,0
406,25291,17973,37,0
407,25276,17982,37,0
408,25287,17980,37,0
409,25279,17978,36,0
410,25275,17976,37,0
411,25268,17970,35,0
412,25257,17973,37,0
413,25259,17971,37,0
414,25257,17966,38,0
415,25250,17977,36,0
416,25260,17967,35,0
417,25252,17971,37,0
418,25257,17971,36,0
419,25261,17967,36,0
420,25255,17970,36,0
421,25264,17965,36,0
422,25262,17961,37,0
423,25255,17963,37,0
424,25256,17957,38,0
425,25255,17965,36,0
426,25259,17957,37,0
427,25257,17955,36,0
428,25256,17953,36,0
429,25264,17947,37,0
430,25259,17949,36,0
431,25262,17940,36,0
432,25259,17945,36,0
433,25261,17945,36,0
434,25264,17940,37,0
435,25257,17939,37,0
436,25262,17940,34,0
437,25262,17940,36,0
438,25265,17936,37,0
439,25266,17926,35,0
440,25257,17933,36,0
441,25268,17929,37,0
442,25266,17927,37,0
443,25261,17926,37,0
444,25259,17928,37,0
445,25265,17932,36,0
446,25266,17936,36,0
447,25264,17934,37,0
448,25263,17949,37,0
449,25274,17955,37,0
450,25274,17966,36,0
451,25280,17970,37,0
452,25282,17973,37,0
453,25283,17986,38,0
454,25293,17983,37,0
455,25286,17982,36,0
456,25287,17988,37,0
457,25296,17983,37,0
458,25295,17974,36,0
459,25287,17969,37,0
460,25293,17965,36,0
461,25295,17966,36,0
462,25300,17963,35,0
463,25302,17957,36,0
464,25301,17957,36,0
465,25306,17946,36,0
466,25301,17939,37,0
467,25308,17929,36,0
468,25309,17922,36,0
469,25313,17918,36,0
470,25310,17914,37,0
471,25307,17917,37,0
472,25306,17921,36,0
473,25297,17917,36,0
474,25283,17924,38,0
475,25290,17920,35,0
476,25275,17931,35,0
477,25285,17931,37,0
478,25285,17936,37,0
479,25293,17942,37,0
480,25302,17936,37,0
481,25290,17937,36,0
482,25292,17941,37,0
483,25303,17937,35,0
484,25296,17940,37,0
485,25300,17942,37,0
486,25298,17946,37,0
487,25308,17940,36,0
488,25301,17942,37,0
489,25296,17951,37,0
490,25303,17950,36,0
491,25302,17952,37,0
492,25303,17956,36,0
493,25302,17954,36,0
494,25302,17952,35,0
495,25307,17949,37,0
496,25304,17949,37,0
497,25304,17950,36,0
498,25313,17946,36,0
499,25309,17941,37,0
500,25304,17937,36,0
501,25308,17932,36,0
502,25308,17933,37,0
503,25314,17922,37,0
504,25305,17928,36,0
505,25311,17931,37,0
506,25317,17925,36,0
507,25311,17928,37,0
508,25317,17918,36,0
509,25304,17924,36,0
510,25314,17923,36,0
511,25310,17924,36,0
512,25310,17936,35,0
513,25320,17942,36,0
514,25320,17951,35,0
515,25326,17953,37,0
516,25321,17958,36,0
517,25318,17962,37,0
518,25324,17960,37,0
519,25320,17957,37,0
520,25323,17953,36,0
521,25320,17949,35,0
522,25324,17943,36,0
523,25321,17935,36,0
524,25314,17936,36,0
525,25315,17930,36,0
526,25315,17927,39,0
527,25310,17928,37,0
528,25317,17920,36,0
529,25316,17921,38,0
530,25319,17921,37,0
531,25327,17917,36,0
532,25320,17921,35,0
533,25321,17919,36,0
534,25320,17922,36,0
535,25323,17921,37,0
536,25320,17914,37,0
537,25312,17920,36,0
538,25319,17918,36,0
539,25314,17918,36,0
540,25315,17928,36,0
541,25322,17921,35,0
542,25311,17926,36,0
543,25312,17927,36,0
544,25316,17928,37,0
545,25317,17930,35,0
546,25322,17919,35,0
547,25311,17925,37,0
548,25322,17920,37,0
549,25321,17912,37,0
550,25313,17925,38,0
551,25325,17919,36,0
552,25314,17922,36,0
553,25317,17925,36,0
554,25324,17926,37,0
555,25326,17924,36,0
556,25327,17913,36,0
557,25316,17918,36,0
558,25323,17915,36,0
559,25323,17913,37,0
560,25320,17916,36,0
561,25326,17908,37,0
562,25319,17912,35,0
563,25324,17911,36,0
564,25321,17903,37,0
565,25319,17905,37,0
566,25329,17907,36,0
567,25333,17901,38,0
568,25327,17906,36,0
569,25334,17895,38,0
570,25324,17900,36,0
571,25333,17895,37,0
572,25323,17899,37,0
573,25324,17906,38,0
574,25328,17907,37,0
575,25328,17921,37,0
576,25340,17932,37,0
577,25341,17937,38,0
578,25333,17949,38,0
579,25341,17942,35,0
580,25329,17948,37,0
581,25335,17942,38,0
582,25335,17938,36,0
583,25334,17943,37,0
584,25342,17936,37,0
585,25338,17940,37,0
586,25335,17939,37,0
587,25340,17933,37,0
588,25331,17931,37,0
589,25331,17926,38,0
590,25325,17928,37,0
591,25336,17926,36,0
592,25338,17918,37,0
593,25337,17913,37,0
594,25335,17913,36,0
595,25339,17908,36,0
596,25333,17912,37,0
597,25345,17905,36,0
598,25334,17904,37,0
599,25329,17905,38,0
600,25331,17899,37,0
601,25320,17907,37,0
602,25326,17905,37,0
603,25322,17908,37,0
604,25324,17905,36,0
605,25324,17911,36,0
606,25329,17914,35,0
607,25334,17903,36,0
608,25324,17911,35,0
609,25334,17905,37,0
610,25330,17906,37,0
611,25334,17904,36,0
612,25332,17901,36,0
613,25333,17904,37,0
614,25337,17895,37,0
615,25334,17889,37,0
616,25326,17889,35,0
617,25331,17883,37,0
618,25331,17885,36,0
619,25328,17881,37,0
620,25332,17878,36,0
621,25325,17883,36,0
622,25330,17879,36,0
623,25330,17879,36,0
624,25330,17885,36,0
625,25335,17880,36,0
626,25329,17873,37,0
627,25331,17871,37,0
628,25328,17871,35,0
629,25329,17876,37,0
630,25337,17867,37,0
631,25325,17867,35,0
632,25327,17872,35,0
633,25328,17877,37,0
634,25327,17885,36,0
635,25333,17888,36,0
636,25326,17896,38,0
637,25333,17903,36,0
638,25329,17919,37,0
639,25333,17940,35,0
640,25341,17946,39,0
641,25342,17951,36,0
642,25340,17964,35,0
643,25343,17964,37,0
644,25340,17970,36,0
645,25349,17964,37,0
646,25349,17966,37,0
647,25348,17961,37,0
648,25351,17950,38,0
649,25346,17949,36,0
650,25345,17941,36,0
651,25345,17944,36,0
652,25350,17940,37,0
653,25349,17934,37,0
654,25350,17928,35,0
655,25349,17918,36,0
656,25348,17912,37,0
657,25351,17902,38,0
658,25353,17895,36,0
659,25351,17897,37,0
660,25349,17891,36,0
661,25350,17887,37,0
662,25343,17882,36,0
663,25335,17880,37,0
664,25335,17880,37,0
665,25335,17879,35,0
666,25337,17873,36,0
667,25327,17880,36,0
668,25340,17873,36,0
669,25339,17876,37,0
670,25338,17882,36,0
671,25347,17873,38,0
672,25343,17876,37,0
673,25344,17876,37,0
674,25344,17873,36,0
675,25338,17867,37,0
676,25340,17863,37,0
677,25336,17868,36,0
678,25339,17863,37,0
679,25333,17862,37,0
680,25331,17862,37,0
681,25329,17858,37,0
682,25322,17861,35,0
683,25328,17864,37,0
684,25328,17866,35,0
685,25336,17861,36,0
686,25332,17863,36,0
687,25339,17859,37,0
688,25334,17853,36,0
689,25330,17846,35,0
690,25327,17853,35,0
691,25337,17846,37,0
692,25334,17847,37,0
693,25341,17843,36,0
694,25331,17840,37,0
695,25325,17843,38,0
696,25330,17838,36,0
697,25321,17847,37,0
698,25325,17851,36,0
699,25324,17854,37,0
700,25323,17869,36,0
701,25333,17873,38,0
702,25329,17881,37,0
703,25331,17899,37,0
704,25343,17902,37,0
705,25342,17907,37,0
706,25339,17900,37,0
707,25328,17903,36,0
708,25327,17899,36,0
709,25330,17886,37,0
710,25321,17888,38,0
711,25333,17878,35,0
712,25322,17874,37,0
713,25324,17871,37,0
714,25328,17866,37,0
715,25324,17867,37,0
716,25327,17861,36,0
717,25327,17857,37,0
718,25327,17861,38,0
719,25335,17849,35,0
720,25328,17844,36,0
721,25327,17835,36,0
722,25325,17831,37,0
723,25319,17830,36,0
724,25314,17828,36,0
725,25309,17829,36,0
726,25309,17834,36,0
727,25310,17828,36,0
728,25300,17836,36,0
729,25311,17831,37,0
730,25302,17838,38,0
731,25310,17840,37,0
732,25312,17832,37,0
733,25306,17837,37,0
734,25307,17836,36,0
735,25309,17839,37,0
736,25309,17839,36,0
737,25308,17839,36,0
738,25306,17842,38,0
739,25307,17843,37,0
740,25310,17843,35,0
741,25308,17839,35,0
742,25311,17834,36,0
743,25309,17839,36,0
744,25318,17832,37,0
745,25310,17834,37,0
746,25316,17829,36,0
747,25317,17822,36,0
748,25310,17823,36,0
749,25314,17820,35,0
750,25317,17816,36,0
751,25311,17818,37,0
752,25311,17809,36,0
753,25310,17806,38,0
754,25307,17810,37,0
755,25309,17810,37,0
756,25306,17812,36,0
757,25310,17810,36,0
758,25313,17803,35,0
759,25306,17811,37,0
760,25308,17811,36,0
761,25303,17823,38,0
762,25301,17839,36,0
763,25313,17844,37,0
764,25317,17850,36,0
765,25323,17854,35,0
766,25318,17858,36,0
767,25316,17863,34,0
768,25319,17871,35,0
769,25320,17874,36,0
770,25318,17866,37,0
771,25310,17874,36,0
772,25319,17865,36,0
773,25310,17860,37,0
774,25311,17867,37,0
775,25319,17848,37,0
776,25301,17857,36,0
777,25319,17849,37,0
778,25319,17840,36,0
779,25307,17848,36,0
780,25322,17837,35,0
781,25315,17836,37,0
782,25320,17835,37,0
783,25326,17827,35,0
784,25314,17834,35,0
785,25318,17828,36,0
786,25311,17835,36,0
787,25312,17831,35,0
788,25308,17827,36,0
789,25301,17839,38,0
790,25310,17835,37,0
791,25305,17829,38,0
792,25303,17834,36,0
793,25310,17838,36,0
794,25313,17836,38,0
795,25312,17838,36,0
796,25317,17832,37,0
797,25308,17841,36,0
798,25318,17841,37,0
799,25313,17840,37,0
800,25314,17831,37,0
801,25311,17832,35,0
802,25315,17833,35,0
803,25313,17828,39,0
804,25309,17826,36,0
805,25308,17827,38,0
806,25314,17822,36,0
807,25306,17824,35,0
808,25316,17811,36,0
809,25304,17812,36,0
810,25308,17812,38,0
811,25313,17806,37,0
812,25307,17808,37,0
813,25310,17806,37,0
814,25309,17806,37,0
815,25313,17798,37,0
816,25307,17802,37,0
817,25303,17806,36,0
818,25309,17801,37,0
819,25302,17801,36,0
820,25304,17809,35,0
821,25311,17802,38,0
822,25303,17813,37,0
823,25309,17824,37,0
824,25311,17836,37,0
825,25310,17851,37,0
826,25320,17856,36,0
827,25324,17865,36,0
828,25322,17869,36,0
829,25324,17866,36,0
830,25318,17874,36,0
831,25326,17868,36,0
832,25317,17872,38,0
833,25321,17870,38,0
834,25323,17865,36,0
835,25316,17860,36,0
836,25319,17861,36,0
837,25322,17849,36,0
838,25312,17847,37,0
839,25314,17843,36,0
840,25309,17847,37,0
841,25318,17840,36,0
842,25316,17838,37,0
843,25319,17839,37,0
844,25325,17828,36,0
845,25315,17826,37,0
846,25314,17819,36,0
847,25312,17818,35,0
848,25312,17821,36,0
849,25312,17815,36,0
850,25303,17819,37,0
851,25304,17822,37,0
852,25302,17823,37,0
853,25298,17831,36,0
854,25306,17823,37,0
855,25297,17832,38,0
856,25303,17836,37,0
857,25311,17829,37,0
858,25306,17838,38,0
859,25315,17832,37,0
860,25307,17833,38,0
861,25311,17835,35,0
862,25315,17825,35,0
863,25305,17835,36,0
864,25315,17829,36,0
865,25309,17825,37,0
866,25305,17830,37,0
867,25315,17823,36,0
868,25303,17828,36,0
869,25310,17819,36,0
870,25301,17822,35,0
871,25309,17825,36,0
872,25311,17821,37,0
873,25309,17820,35,0
874,25316,17815,37,0
875,25309,17819,37,0
876,25310,17823,36,0
877,25314,17812,37,0
878,25307,17812,36,0
879,25305,17809,35,0
880,25306,17809,36,0
881,25307,17807,35,0
882,25309,17808,37,0
883,25310,17812,37,0
884,25313,17818,37,0
885,25314,17820,37,0
886,25311,17829,37,0
887,25312,17832,36,0
888,25305,17839,36,0
889,25310,17850,36,0
890,25317,17855,36,0
891,25317,17873,38,0
892,25324,17866,37,0
893,25312,17866,36,0
894,25314,17873,38,0
895,25324,17870,37,0
896,25321,17865,36,0
897,25321,17855,37,0
898,25314,17848,36,0
899,25312,17851,36,0
900,25317,17837,36,0
901,25304,17835,37,0
902,25309,17835,36,0
903,25313,17829,37,0
904,25309,17831,36,0
905,25315,17820,37,0
906,25304,17818,36,0
907,25312,17814,35,0
908,25309,17817,37,0
909,25312,17815,36,0
910,25313,17810,36,0
911,25307,17812,34,0
912,25307,17811,36,0
913,25304,17810,35,0
914,25303,17811,37,0
915,25308,17806,36,0
916,25302,17810,37,0
917,25306,17809,36,0
918,25305,17810,38,0
919,25303,17808,37,0
920,25303,17804,37,0
921,25301,17810,37,0
922,25309,17810,37,0
923,25308,17801,36,0
924,25300,17811,35,0
925,25313,17812,37,0
926,25312,17808,35,0
927,25309,17803,36,0
928,25306,17796,36,0
929,25301,17804,38,0
930,25313,17799,37,0
931,25316,17792,35,0
932,25304,17795,36,0
933,25312,17787,37,0
934,25307,17792,37,0
935,25310,17788,35,0
936,25309,17780,37,0
937,25305,17783,37,0
938,25307,17779,36,0
939,25302,17776,37,0
940,25299,17775,36,0
941,25301,17772,38,0
942,25303,17777,36,0
943,25307,17778,37,0
944,25309,17784,35,0
945,25317,17780,37,0
946,25316,17777,37,0
947,25308,17782,36,0
948,25313,17785,36,0
949,25311,17786,36,0
950,25312,17791,36,0
951,25312,17796,36,0
952,25310,17814,36,0
953,25324,17813,36,0
954,25319,17827,38,0
955,25322,17841,36,0
956,25327,17840,38,0
957,25322,17843,37,0
958,25321,17846,37,0
959,25326,17838,36,0
960,25318,17831,36,0
961,25315,17826,38,0
962,25312,17827,37,0
963,25316,17820,37,0
964,25317,17816,38,0
965,25315,17816,37,0
966,25315,17807,37,0
967,25307,17811,37,0
968,25313,17816,37,0
969,25316,17805,36,0
970,25314,17806,36,0
971,25319,17804,36,0
972,25314,17807,36,0
973,25317,17810,37,0
974,25323,17801,38,0
975,25309,17803,36,0
976,25311,17796,37,0
977,25304,17801,37,0
978,25309,17799,37,0
979,25302,17798,36,0
980,25303,17799,36,0
981,25302,17795,37,0
982,25303,17799,36,0
983,25310,17802,36,0
984,25311,17799,38,0
985,25307,17802,39,0
986,25313,17796,36,0
987,25310,17795,36,0
988,25310,17802,37,0
989,25316,17791,36,0
990,25302,17800,37,0
991,25311,17800,37,0
992,25310,17798,36,0
993,25300,17807,37,0
994,25313,17804,35,0
995,25299,17811,36,0
996,25307,17811,35,0
997,25309,17811,37,0
998,25307,17812,38,0
