VAL,PPG1,PPG2,BIOZ1,BIOZ2
0,26900,27398,49,16
1,26891,27681,49,16
2,26897,27682,49,15
3,26886,27691,47,17
4,26888,27697,50,17
5,26877,27702,50,17
6,26885,27710,48,17
7,26885,27704,49,16
8,26870,27709,50,17
9,26878,27717,49,17
10,26875,27713,48,16
11,26870,27729,47,15
12,26881,27731,50,17
13,26872,27739,49,15
14,26882,27740,48,15
15,26869,27748,49,16
16,26874,27764,48,16
17,26881,27762,48,16
18,26863,27771,49,18
19,26870,27784,49,16
20,26865,27784,49,17
21,26858,27805,48,16
22,26869,27809,47,17
23,26860,27813,50,15
24,26865,27817,49,18
25,26856,27825,48,16
26,26858,27837,47,17
27,26867,27839,49,15
28,26855,27842,48,16
29,26858,27846,47,16
30,26853,27845,48,16
31,26841,27864,47,15
32,26851,27878,49,16
33,26848,27878,47,16
34,26840,27896,49,16
35,26840,27909,48,16
36,26835,27916,48,16
37,26837,27929,48,16
38,26832,27935,49,16
39,26835,27948,48,16
40,26836,27958,48,16
41,26836,27964,49,16
42,26846,27968,49,16
43,26841,27964,48,16
44,26853,27953,48,16
45,26854,27926,48,16
46,26846,27899,47,16
47,26861,27873,48,16
48,26860,27841,49,16
49,26863,27826,49,16
50,26872,27795,48,16
51,26866,27774,49,15
52,26877,27758,49,16
53,26873,27747,49,16
54,26872,27741,48,18
55,26876,27739,48,16
56,26867,27740,49,16
57,26869,27749,49,16
58,26869,27741,47,17
59,26863,27757,48,16
60,26878,27751,50,16
61,26861,27757,50,16
62,26868,27762,48,16
63,26864,27769,49,17
64,26867,27774,49,16
65,26873,27787,48,16
66,26875,27789,46,17
67,26872,27807,48,17
68,26884,27804,49,17
69,26879,27825,50,15
70,26895,27826,50,16
71,26877,27839,49,17
72,26888,27849,49,17
73,26890,27850,49,18
74,26880,27858,48,16
75,26887,27857,49,17
76,26875,27865,48,16
77,26884,27884,47,16
78,26899,27881,50,15
79,26887,27896,47,16
80,26896,27901,49,14
81,26886,27908,49,16
82,26887,27927,49,16
83,26895,27935,49,17
84,26883,27945,49,16
85,26889,27952,49,15
86,26882,27950,48,16
87,26873,27970,49,17
88,26886,27975,49,16
89,26877,27973,47,17
90,26877,27988,47,17
91,26881,27983,47,16
92,26871,27993,49,16
93,26883,27993,48,16
94,26871,27997,49,16
95,26881,28002,49,15
96,26880,27991,49,18
97,26871,28005,48,16
98,26887,28006,48,16
99,26881,28009,49,17
100,26893,28013,48,17
101,26894,28014,49,15
102,26885,28023,47,16
103,26895,28030,48,16
104,26890,28038,47,16
105,26888,28057,47,15
106,26897,28066,48,15
107,26894,28072,49,16
108,26902,28079,48,15
109,26895,28093,49,17
110,26916,28097,49,17
111,26923,28088,48,17
112,26913,28105,48,15
113,26942,28094,47,17
114,26929,28095,48,16
115,26936,28093,49,14
116,26940,28080,49,16
117,26925,28069,49,14
118,26929,28061,50,15
119,26923,28040,48,16
120,26906,28035,47,16
121,26915,28012,49,15
122,26891,28000,48,16
123,26890,27998,49,16
124,26889,27994,48,16
125,26885,28004,50,15
126,26901,27993,48,17
127,26884,28005,48,14
128,26901,28013,48,16
129,26906,28013,50,18
130,26900,28029,49,16
131,26918,28033,50,16
132,26907,28037,49,17
133,26909,28047,49,16
134,26908,28052,48,16
135,26896,28070,48,16
136,26907,28072,49,16
137,26892,28075,48,16
138,26893,28085,47,17
139,26898,28075,49,15
140,26880,28090,49,15
141,26895,28095,49,16
142,26893,28093,48,15
143,26893,28099,49,14
144,26905,28089,48,16
145,26890,28092,48,17
146,26902,28092,47,15
147,26898,28081,49,16
148,26897,28078,50,15
149,26902,28066,48,15
150,26893,28067,48,17
151,26901,28065,49,15
152,26897,28049,49,16
153,26888,28056,49,17
154,26899,28042,48,16
155,26877,28052,48,15
156,26896,28045,49,17
157,26884,28041,48,17
158,26880,28051,48,16
159,26896,28046,48,17
160,26885,28044,48,16
161,26886,28054,48,16
162,26894,28052,47,17
163,26893,28058,50,17
164,26905,28052,48,16
165,26895,28058,48,17
166,26907,28070,48,17
167,26915,28059,48,17
168,26902,28061,49,17
169,26914,28064,48,16
170,26909,28065,49,16
171,26918,28078,48,16
172,26928,28068,47,17
173,26912,28075,46,16
174,26927,28081,48,17
175,26923,28074,48,16
176,26923,28085,49,15
177,26936,28081,48,16
178,26929,28080,49,18
179,26937,28085,48,15
180,26944,28080,49,16
181,26945,28086,50,16
182,26955,28087,50,15
183,26949,28083,48,17
184,26957,28084,49,18
185,26953,28080,49,17
186,26955,28081,49,16
187,26965,28068,49,17
188,26954,28063,48,17
189,26965,28048,49,17
190,26957,28029,48,16
191,26948,28023,50,16
192,26957,28010,49,17
193,26940,28009,49,15
194,26951,28013,49,17
195,26956,28003,49,17
196,26942,28015,49,17
197,26961,28020,49,17
198,26954,28018,49,16
199,26955,28034,48,16
200,26968,28032,49,15
201,26961,28040,48,16
202,26978,28045,49,17
203,26972,28050,49,14
204,26986,28053,50,17
205,26990,28054,49,16
206,26987,28061,48,15
207,27003,28058,49,15
208,26997,28059,48,17
209,27006,28057,50,17
210,27011,28054,47,15
211,27003,28055,47,16
212,27012,28055,48,16
213,27008,28052,49,15
214,27008,28060,48,17
215,27024,28053,47,18
216,27010,28047,48,17
217,27018,28043,48,17
218,27017,28036,48,15
219,27011,28043,49,16
220,27027,28036,49,16
221,27017,28035,49,17
222,27028,28039,50,16
223,27029,28021,48,16
224,27017,28030,48,17
225,27037,28031,51,15
226,27030,28021,47,15
227,27034,28032,48,16
228,27041,28025,49,16
229,27037,28029,49,16
230,27050,28032,48,17
231,27047,28039,48,16
232,27057,28044,50,16
233,27065,28044,48,17
234,27061,28051,49,16
235,27074,28054,49,16
236,27074,28051,48,17
237,27071,28066,49,16
238,27087,28058,49,15
239,27073,28073,48,17
240,27097,28076,49,17
241,27089,28075,49,15
242,27094,28086,48,16
243,27106,28079,49,17
244,27096,28087,49,17
245,27112,28088,49,16
246,27110,28081,48,16
247,27103,28093,48,16
248,27117,28090,50,15
249,27106,28091,48,16
250,27114,28102,47,17
251,27118,28102,49,16
252,27119,28110,48,16
253,27132,28099,47,17
254,27116,28098,48,16
255,27122,28107,49,16
256,27132,28104,49,14
257,27123,28115,48,15
258,27139,28104,49,16
259,27122,28105,46,16
260,27131,28097,47,18
261,27129,28080,48,17
262,27115,28083,46,15
263,27132,28055,47,16
264,27113,28045,50,16
265,27116,28033,48,15
266,27115,28018,49,16
267,27101,28015,47,18
268,27110,28015,49,15
269,27103,28008,47,16
270,27101,28017,49,15
271,27108,28017,49,15
272,27098,28019,48,16
273,27101,28028,49,17
274,27102,28024,49,15
275,27094,28039,50,17
276,27107,28044,50,17
277,27098,28044,49,15
278,27100,28052,49,17
279,27101,28054,50,15
280,27100,28068,48,16
281,27113,28058,50,14
282,27096,28057,49,16
283,27101,28061,49,16
284,27097,28061,50,16
285,27097,28069,48,17
286,27108,28073,48,15
287,27100,28065,48,15
288,27101,28069,48,17
289,27101,28063,49,17
290,27093,28076,47,16
291,27109,28069,49,15
292,27099,28067,49,18
293,27099,28074,49,14
294,27108,28068,47,16
295,27092,28071,49,17
296,27103,28067,49,18
297,27086,28064,48,16
298,27092,28072,49,16
299,27096,28079,48,15
300,27090,28082,48,16
301,27100,28084,49,16
302,27091,28089,49,17
303,27097,28095,49,15
304,27099,28097,49,16
305,27091,28105,46,16
306,27103,28112,49,16
307,27101,28110,49,15
308,27096,28120,48,15
309,27112,28118,49,15
310,27098,28125,49,15
311,27108,28125,47,17
312,27107,28121,49,18
313,27096,28132,47,16
314,27114,28124,48,15
315,27096,28120,49,15
316,27104,28126,49,15
317,27101,28123,49,15
318,27096,28131,48,15
319,27110,28120,49,16
320,27091,28124,49,16
321,27100,28131,48,17
322,27101,28128,50,15
323,27094,28136,47,16
324,27109,28135,49,17
325,27095,28136,48,16
326,27099,28143,48,18
327,27102,28139,48,17
328,27088,28154,49,17
329,27108,28153,48,18
330,27103,28147,49,16
331,27094,28154,48,15
332,27108,28150,49,16
333,27094,28159,50,16
334,27112,28156,49,16
335,27098,28164,47,15
336,27104,28168,48,16
337,27108,28161,48,15
338,27093,28159,49,17
339,27104,28147,50,16
340,27092,28132,48,17
341,27084,28132,49,18
342,27097,28116,47,15
343,27081,28104,49,17
344,27084,28096,50,15
345,27075,28086,49,18
346,27067,28097,50,16
347,27081,28090,49,16
348,27066,28090,47,16
349,27068,28108,47,18
350,27081,28098,49,16
351,27063,28115,50,16
352,27083,28114,50,16
353,27073,28113,50,17
354,27076,28121,48,15
355,27083,28115,51,17
356,27069,28121,49,16
357,27086,28126,47,15
358,27081,28116,48,15
359,27077,28128,48,16
360,27087,28116,47,15
361,27075,28120,49,15
362,27088,28119,49,15
363,27082,28104,49,15
364,27076,28117,49,15
365,27090,28113,49,18
366,27078,28109,50,16
367,27086,28118,47,15
368,27091,28103,48,16
369,27079,28107,48,15
370,27088,28102,48,16
371,27074,28107,50,17
372,27091,28110,49,16
373,27084,28102,49,15
374,27080,28109,49,16
375,27093,28099,49,16
376,27074,28104,48,16
377,27087,28111,48,18
378,27087,28107,49,17
379,27082,28114,49,16
380,27093,28116,50,15
381,27084,28117,48,17
382,27090,28118,47,17
383,27093,28120,48,17
384,27089,28128,50,16
385,27102,28130,50,16
386,27096,28130,49,16
387,27096,28137,50,16
388,27110,28124,48,15
389,27086,28132,48,17
390,27100,28130,48,16
391,27092,28133,50,16
392,27105,28128,48,16
393,27102,28127,50,17
394,27095,28136,50,16
395,27112,28133,48,18
396,27102,28136,48,16
397,27110,28143,49,16
398,27117,28138,49,16
399,27108,28145,48,16
400,27121,28141,49,16
401,27112,28133,48,16
402,27107,28141,47,17
403,27121,28137,48,16
404,27108,28141,48,14
405,27118,28142,48,16
406,27120,28131,50,17
407,27110,28136,49,16
408,27117,28143,50,15
409,27112,28142,49,16
410,27123,28147,49,16
411,27122,28141,46,16
412,27113,28149,48,15
413,27126,28146,49,15
414,27111,28156,48,16
415,27121,28162,48,14
416,27126,28147,48,16
417,27112,28154,49,15
418,27126,28139,49,16
419,27113,28121,49,16
420,27112,28110,47,15
421,27108,28090,47,18
422,27094,28082,49,15
423,27104,28074,48,15
424,27096,28056,49,16
425,27087,28065,49,18
426,27100,28052,49,17
427,27083,28058,50,17
428,27092,28060,49,15
429,27085,28068,49,16
430,27087,28082,49,15
431,27099,28084,48,15
432,27085,28080,48,16
433,27084,28092,48,17
434,27083,28097,49,16
435,27083,28102,48,17
436,27087,28108,47,16
437,27081,28111,47,17
438,27091,28108,48,15
439,27078,28103,49,16
440,27076,28112,48,16
441,27084,28113,48,18
442,27082,28111,47,17
443,27093,28111,50,15
444,27093,28105,50,17
445,27080,28105,49,17
446,27091,28102,49,15
447,27081,28100,49,15
448,27087,28109,50,16
449,27092,28097,49,16
450,27078,28100,49,16
451,27093,28102,49,17
452,27089,28096,50,15
453,27091,28102,49,16
454,27098,28095,49,16
455,27089,28099,49,16
456,27103,28093,49,16
457,27089,28086,49,17
458,27091,28094,48,17
459,27100,28101,49,16
460,27097,28103,48,16
461,27107,28095,48,15
462,27095,28099,49,17
463,27100,28103,49,16
464,27111,28099,49,15
465,27097,28103,49,16
466,27108,28108,49,15
467,27107,28109,48,17
468,27109,28119,48,17
469,27123,28105,48,17
470,27102,28112,46,15
471,27116,28116,49,15
472,27117,28116,49,15
473,27113,28122,48,15
474,27122,28121,48,15
475,27115,28127,49,15
476,27123,28131,48,15
477,27120,28121,49,16
478,27108,28141,48,15
479,27131,28134,49,16
480,27118,28140,49,16
481,27122,28149,49,17
482,27132,28139,50,15
483,27120,28142,48,16
484,27129,28144,50,16
485,27120,28146,49,14
486,27128,28157,49,16
487,27135,28154,50,15
488,27125,28151,49,16
489,27126,28153,49,18
490,27119,28159,49,17
491,27126,28171,48,16
492,27142,28148,49,15
493,27121,28146,49,16
494,27128,28139,50,17
495,27121,28115,48,17
496,27110,28119,48,16
497,27126,28097,50,16
498,27106,28092,50,16
499,27117,28088,49,17
500,27117,28075,50,17
501,27104,28084,50,18
502,27120,28077,50,17
503,27104,28080,49,16
504,27112,28086,50,16
505,27111,28088,49,16
506,27108,28092,47,15
507,27114,28101,48,16
508,27110,28100,48,15
509,27116,28112,47,17
510,27119,28114,49,15
511,27118,28117,47,16
512,27129,28114,49,16
513,27118,28119,48,16
514,27127,28119,50,16
515,27125,28106,51,15
516,27110,28117,48,16
517,27129,28115,48,17
518,27119,28115,50,16
519,27121,28117,48,17
520,27130,28114,50,15
521,27121,28107,50,15
522,27124,28112,48,17
523,27121,28103,48,17
524,27115,28098,49,16
525,27117,28098,50,17
526,27109,28094,50,15
527,27113,28099,48,16
528,27111,28093,48,17
529,27111,28108,49,16
530,27129,28086,48,17
531,27105,28094,49,17
532,27121,28094,48,16
533,27114,28089,48,16
534,27111,28102,48,17
535,27127,28096,50,16
536,27113,28107,50,17
537,27131,28107,49,18
538,27131,28109,48,17
539,27123,28106,49,16
540,27127,28112,49,17
541,27123,28108,49,16
542,27123,28116,50,16
543,27129,28111,49,15
544,27117,28124,50,17
545,27137,28126,49,16
546,27128,28125,48,17
547,27136,28131,49,17
548,27142,28120,48,16
549,27127,28124,49,15
550,27140,28123,49,16
551,27130,28131,48,17
552,27142,28133,48,16
553,27147,28131,48,16
554,27135,28128,48,15
555,27140,28131,49,17
556,27138,28130,48,16
557,27135,28133,49,16
558,27146,28136,49,16
559,27140,28138,48,15
560,27148,28142,47,15
561,27143,28137,49,17
562,27142,28143,48,17
563,27154,28140,48,16
564,27143,28142,48,16
565,27150,28149,49,17
566,27151,28145,50,16
567,27146,28152,48,16
568,27158,28142,48,16
569,27146,28134,49,16
570,27150,28129,50,17
571,27145,28104,49,15
572,27135,28100,49,15
573,27144,28088,49,15
574,27134,28074,48,15
575,27132,28070,49,15
576,27138,28067,49,15
577,27130,28061,50,17
578,27134,28064,49,14
579,27127,28065,49,16
580,27132,28075,48,15
581,27139,28068,49,17
582,27121,28083,48,18
583,27140,28091,48,17
584,27133,28090,49,15
585,27133,28095,49,16
586,27135,28100,49,17
587,27129,28111,49,16
588,27143,28105,49,15
589,27130,28109,50,15
590,27136,28119,49,16
591,27146,28108,50,17
592,27131,28107,48,17
593,27137,28109,47,15
594,27130,28110,48,16
595,27132,28117,48,16
596,27146,28111,50,17
597,27131,28110,48,17
598,27137,28114,48,14
599,27136,28108,49,16
600,27130,28115,49,17
601,27141,28111,50,16
602,27132,28113,49,16
603,27141,28110,49,15
604,27133,28099,49,17
605,27121,28116,49,16
606,27145,28116,48,14
607,27133,28112,49,17
608,27133,28117,49,16
609,27137,28112,49,17
610,27130,28121,51,17
611,27142,28121,48,16
612,27134,28122,49,16
613,27138,28128,48,15
614,27146,28130,49,15
615,27142,28127,48,17
616,27146,28133,50,19
617,27146,28127,49,16
618,27143,28136,50,16
619,27152,28124,48,17
620,27136,28133,49,17
621,27156,28134,49,15
622,27152,28130,48,17
623,27153,28133,49,16
624,27162,28132,49,14
625,27156,28133,49,17
626,27166,28127,49,16
627,27153,28129,48,16
628,27162,28133,49,15
629,27172,28131,49,16
630,27161,28128,48,17
631,27166,28134,49,16
632,27167,28131,49,16
633,27157,28146,48,16
634,27177,28143,48,16
635,27167,28147,49,17
636,27172,28157,48,16
637,27179,28151,50,17
638,27170,28161,48,17
639,27187,28159,49,17
640,27173,28160,48,16
641,27182,28171,49,17
642,27187,28162,50,17
643,27174,28174,49,17
644,27191,28180,49,15
645,27184,28169,47,17
646,27181,28181,51,17
647,27194,28155,49,17
648,27168,28153,48,16
649,27182,28144,50,17
650,27175,28118,49,17
651,27160,28118,48,16
652,27173,28108,48,16
653,27157,28099,50,15
654,27162,28094,49,17
655,27154,28088,48,15
656,27148,28100,49,16
657,27164,28097,49,17
658,27146,28105,50,15
659,27161,28108,49,17
660,27159,28118,48,15
661,27166,28120,49,16
662,27167,28118,49,17
663,27154,28123,48,15
664,27162,28130,48,18
665,27161,28125,49,16
666,27155,28135,48,16
667,27167,28129,49,16
668,27156,28132,47,16
669,27165,28130,49,16
670,27163,28128,48,16
671,27156,28128,49,16
672,27163,28131,48,16
673,27159,28128,50,16
674,27165,28130,49,15
675,27166,28116,48,16
676,27153,28118,50,16
677,27167,28116,50,17
678,27163,28105,49,15
679,27167,28102,50,18
680,27171,28088,50,17
681,27155,28085,50,15
682,27166,28088,49,17
683,27166,28073,50,17
684,27160,28081,49,17
685,27174,28077,49,17
686,27160,28082,47,16
687,27171,28090,49,16
688,27167,28090,47,15
689,27165,28101,48,17
690,27174,28111,49,16
691,27168,28119,48,17
692,27172,28128,49,16
693,27171,28131,48,17
694,27169,28141,48,17
695,27181,28144,50,16
696,27168,28155,49,16
697,27186,28167,49,17
698,27192,28159,50,15
699,27194,28171,50,16
700,27214,28165,47,16
701,27209,28168,49,16
702,27225,28173,49,16
703,27238,28167,48,15
704,27235,28170,47,15
705,27254,28168,50,17
706,27252,28173,49,17
707,27269,28171,48,17
708,27273,28169,49,17
709,27269,28168,49,16
710,27279,28174,50,16
711,27280,28165,49,15
712,27281,28172,49,16
713,27286,28165,50,15
714,27277,28170,49,15
715,27292,28168,49,16
716,27285,28169,48,16
717,27292,28172,49,14
718,27304,28163,49,14
719,27292,28169,49,16
720,27304,28175,50,17
721,27305,28168,49,17
722,27303,28177,50,16
723,27319,28172,51,18
724,27305,28163,49,17
725,27310,28164,49,15
726,27313,28146,49,18
727,27305,28138,50,14
728,27313,28128,49,16
729,27302,28108,48,14
730,27297,28107,49,14
731,27304,28088,48,15
732,27289,28081,50,16
733,27295,28068,49,17
734,27279,28069,47,17
735,27288,28069,48,17
736,27283,28067,48,17
737,27277,28071,50,14
738,27287,28075,49,18
739,27277,28079,50,15
740,27285,28092,50,16
741,27294,28085,50,17
742,27278,28095,49,18
743,27293,28090,49,16
744,27276,28097,48,16
745,27285,28107,49,18
746,27296,28107,48,16
747,27286,28105,48,16
748,27292,28110,49,18
749,27292,28100,49,16
750,27283,28112,49,15
751,27297,28103,48,17
752,27281,28103,49,16
753,27293,28102,49,17
754,27285,28105,48,17
755,27291,28101,48,16
756,27289,28102,48,17
757,27283,28098,48,16
758,27290,28093,48,17
759,27276,28101,49,17
760,27281,28092,48,16
761,27283,28096,48,16
762,27274,28099,50,17
763,27279,28102,50,16
764,27274,28097,49,16
765,27265,28099,51,16
766,27274,28108,48,16
767,27268,28095,48,16
768,27265,28101,49,17
769,27264,28095,48,17
770,27257,28101,48,17
771,27271,28095,49,16
772,27260,28094,48,17
773,27265,28095,49,16
774,27267,28087,48,16
775,27258,28086,49,15
776,27266,28090,49,15
777,27262,28078,50,16
778,27261,28085,49,16
779,27270,28077,48,17
780,27259,28078,48,16
781,27268,28079,48,17
782,27258,28068,49,16
783,27256,28076,48,17
784,27266,28066,49,16
785,27250,28083,49,16
786,27272,28078,47,15
787,27258,28080,49,16
788,27265,28091,47,15
789,27278,28080,48,16
790,27267,28079,48,17
791,27273,28090,50,17
792,27277,28080,49,15
793,27269,28086,48,15
794,27283,28086,49,17
795,27269,28081,48,17
796,27275,28095,50,16
797,27281,28087,49,16
798,27272,28094,48,15
799,27286,28079,48,16
800,27265,28079,48,16
801,27277,28069,48,17
802,27275,28051,49,16
803,27268,28037,48,17
804,27270,28032,49,17
805,27268,28016,50,17
806,27267,28006,48,17
807,27263,27990,49,16
808,27247,27984,49,16
809,27255,27982,50,16
810,27243,27982,50,17
811,27243,27991,50,16
812,27251,27991,49,16
813,27241,28001,50,16
814,27259,28009,48,15
815,27254,28000,49,15
816,27247,28010,49,16
817,27257,28015,48,17
818,27255,28012,48,16
819,27258,28021,49,17
820,27258,28010,49,16
821,27254,28018,48,16
822,27264,28014,48,17
823,27253,28020,48,15
824,27263,28020,49,16
825,27260,28021,48,17
826,27259,28028,49,16
827,27273,28021,49,18
828,27255,28024,47,16
829,27265,28027,49,16
830,27268,28019,50,15
831,27261,28019,48,15
832,27269,28018,49,15
833,27257,28014,49,16
834,27261,28020,48,17
835,27266,28013,49,16
836,27254,28018,47,17
837,27268,28016,48,15
838,27256,28020,46,15
839,27265,28024,50,18
840,27268,28023,48,17
841,27254,28028,48,16
842,27266,28031,48,16
843,27264,28033,48,16
844,27265,28036,50,16
845,27271,28033,49,17
846,27263,28034,49,16
847,27271,28032,47,15
848,27266,28034,48,16
849,27272,28036,48,16
850,27278,28029,49,17
851,27267,28033,49,16
852,27279,28021,49,17
853,27264,28027,50,15
854,27269,28040,49,17
855,27284,28036,49,16
856,27275,28030,49,18
857,27278,28030,48,15
858,27276,28025,47,15
859,27273,28026,49,16
860,27279,28030,48,16
861,27278,28029,49,16
862,27281,28029,48,15
863,27284,28023,49,15
864,27273,28033,48,16
865,27288,28032,49,15
866,27275,28036,50,17
867,27285,28042,48,16
868,27288,28038,50,16
869,27279,28040,48,16
870,27288,28037,48,17
871,27278,28024,48,16
872,27279,28016,48,15
873,27280,27996,47,16
874,27261,27990,48,16
875,27267,27983,46,16
876,27256,27969,49,16
877,27254,27972,49,17
878,27256,27963,48,18
879,27243,27967,48,15
880,27250,27969,47,17
881,27245,27962,49,16
882,27235,27983,51,17
883,27257,27979,50,17
884,27241,27985,49,17
885,27251,27993,49,16
886,27249,27991,50,16
887,27246,27997,46,17
888,27256,27999,49,16
889,27244,28000,49,15
890,27253,27993,49,16
891,27242,27985,49,18
892,27234,27997,47,17
893,27253,27996,48,17
894,27242,28000,47,17
895,27254,28005,49,16
896,27255,27994,50,15
897,27246,27997,49,17
898,27255,28004,48,16
899,27252,27990,48,15
900,27242,28000,50,16
901,27259,27984,49,18
902,27239,27986,48,15
903,27252,27977,47,15
904,27239,27974,49,17
905,27243,27976,48,15
906,27246,27973,48,17
907,27238,27967,49,16
908,27243,27977,48,16
909,27245,27967,47,17
910,27239,27976,49,16
911,27251,27969,50,16
912,27238,27963,47,15
913,27241,27978,49,16
914,27251,27967,48,16
915,27244,27971,49,16
916,27253,27981,49,17
917,27252,27965,48,18
918,27246,27976,49,16
919,27257,27969,48,18
920,27248,27973,50,16
921,27257,27975,49,16
922,27252,27971,49,16
923,27259,27979,48,17
924,27265,27963,48,17
925,27252,27976,47,17
926,27272,27975,50,16
927,27262,27973,48,15
928,27270,27977,49,18
929,27273,27970,49,17
930,27263,27973,49,18
931,27271,27970,49,17
932,27267,27967,49,17
933,27267,27975,49,17
934,27282,27967,48,17
935,27269,27971,47,15
936,27283,27975,49,16
937,27284,27969,48,16
938,27279,27975,47,16
939,27288,27969,48,16
940,27277,27970,47,15
941,27285,27962,48,17
942,27274,27946,48,16
943,27272,27938,48,17
944,27276,27917,48,18
945,27257,27911,50,15
946,27267,27895,49,17
947,27253,27883,48,17
948,27251,27875,48,16
949,27252,27867,48,16
950,27239,27862,48,16
951,27242,27866,49,16
952,27243,27864,49,16
953,27234,27867,50,15
954,27239,27870,48,16
955,27232,27873,47,17
956,27230,27882,48,16
957,27237,27880,50,16
958,27222,27889,47,16
959,27233,27892,49,17
960,27225,27896,49,16
961,27231,27906,49,17
962,27231,27904,48,17
963,27222,27913,49,17
964,27236,27906,49,16
965,27217,27913,49,17
966,27225,27920,49,14
967,27229,27918,49,16
968,27219,27927,48,15
969,27237,27922,49,18
970,27221,27917,49,17
971,27223,27929,49,17
972,27234,27918,49,16
973,27217,27914,49,16
974,27224,27916,47,16
975,27222,27911,50,16
976,27216,27910,48,16
977,27219,27905,50,17
978,27210,27903,48,15
979,27217,27902,49,17
980,27213,27897,49,16
981,27212,27899,47,17
982,27219,27894,48,16
983,27207,27895,48,15
984,27213,27908,48,16
985,27220,27894,48,16
986,27205,27903,49,16
987,27217,27902,49,15
988,27207,27901,48,17
989,27216,27891,48,16
990,27202,27897,49,15
991,27204,27897,49,16
992,27209,27897,49,15
993,27207,27889,49,17
994,27201,27902,48,17
995,27218,27894,48,17
996,27204,27899,49,17
997,27218,27889,48,16
998,27199,27888,49,17
999,27208,27901,48,15
