VAL,PPG1,PPG2,BIOZ1,BIOZ2
0,27307,28314,41,22
1,27609,28305,42,22
2,27613,28308,42,20
3,27624,28311,41,21
4,27626,28305,41,21
5,27617,28311,42,22
6,27629,28307,41,23
7,27629,28316,42,22
8,27639,28312,42,20
9,27625,28309,43,21
10,27618,28313,42,23
11,27622,28316,42,22
12,27620,28323,43,22
13,27620,28327,41,21
14,27622,28318,41,22
15,27610,28330,42,21
16,27624,28323,41,21
17,27615,28320,42,22
18,27601,28320,40,22
19,27596,28318,41,21
20,27596,28330,41,20
21,27610,28327,42,21
22,27607,28327,42,20
23,27603,28329,41,21
24,27603,28317,42,22
25,27594,28332,41,22
26,27616,28327,41,23
27,27612,28326,41,22
28,27610,28328,41,22
29,27611,28329,42,22
30,27616,28330,42,20
31,27612,28329,43,21
32,27608,28332,41,20
33,27607,28333,43,22
34,27607,28330,42,22
35,27607,28330,40,21
36,27604,28331,42,21
37,27594,28326,41,20
38,27585,28335,41,21
39,27595,28329,42,21
40,27592,28332,41,22
41,27596,28330,42,21
42,27593,28327,41,21
43,27592,28329,40,21
44,27606,28324,42,22
45,27608,28330,42,23
46,27616,28325,43,23
47,27609,28327,42,21
48,27609,28325,41,21
49,27614,28321,43,22
50,27607,28327,42,22
51,27612,28329,42,22
52,27617,28328,41,22
53,27625,28329,42,23
54,27635,28332,42,22
55,27639,28324,41,21
56,27632,28326,43,21
57,27635,28326,42,21
58,27639,28325,42,22
59,27648,28328,42,22
60,27648,28325,41,21
61,27640,28322,41,22
62,27641,28323,44,22
63,27642,28327,41,20
64,27656,28335,43,20
65,27660,28325,42,22
66,27649,28336,42,21
67,27660,28328,42,21
68,27654,28331,41,23
69,27651,28323,42,22
70,27631,28324,40,21
71,27616,28329,40,22
72,27623,28337,40,21
73,27646,28348,39,19
74,27666,28352,41,20
75,27660,28338,39,22
76,27627,28340,39,21
77,27624,28340,39,22
78,27623,28344,39,21
79,27628,28348,41,21
80,27621,28349,39,21
81,27611,28336,39,21
82,27591,28337,39,22
83,27587,28345,38,22
84,27589,28346,38,20
85,27586,28344,39,21
86,27590,28339,40,20
87,27577,28345,38,21
88,27577,28339,40,20
89,27566,28347,40,20
90,27575,28342,39,22
91,27566,28349,39,21
92,27580,28345,41,23
93,27572,28345,41,22
94,27558,28344,40,21
95,27556,28339,39,21
96,27549,28340,38,21
97,27554,28342,39,22
98,27558,28340,39,21
99,27559,28344,40,22
100,27569,28342,40,21
101,27569,28346,39,21
102,27579,28346,37,21
103,27588,28345,38,21
104,27591,28342,38,21
105,27597,28339,38,20
106,27594,28340,36,22
107,27596,28343,37,21
108,27600,28345,35,21
109,27605,28344,37,21
110,27614,28344,38,20
111,27621,28344,37,20
112,27618,28340,36,19
113,27614,28350,35,21
114,27628,28345,37,21
115,27633,28349,37,21
116,27635,28346,36,22
117,27627,28345,37,21
118,27620,28347,36,21
119,27624,28351,37,22
120,27634,28353,36,24
121,27638,28352,36,20
122,27631,28349,36,21
123,27627,28351,36,22
124,27629,28350,37,22
125,27633,28350,36,21
126,27632,28351,36,20
127,27634,28354,36,21
128,27638,28349,36,21
129,27636,28350,36,20
130,27641,28354,38,21
131,27641,28359,36,22
132,27645,28359,35,20
133,27642,28350,35,19
134,27632,28358,35,20
135,27631,28360,35,23
136,27622,28366,36,20
137,27621,28364,37,21
138,27621,28362,36,20
139,27617,28363,35,21
140,27615,28365,35,22
141,27608,28362,35,21
142,27606,28364,37,19
143,27609,28367,38,20
144,27607,28368,37,20
145,27601,28364,37,21
146,27600,28359,37,20
147,27599,28358,36,22
148,27598,28365,37,22
149,27608,28359,37,21
150,27602,28364,36,20
151,27612,28369,36,21
152,27620,28356,37,19
153,27614,28365,36,21
154,27621,28362,36,20
155,27617,28355,37,20
156,27617,28359,36,20
157,27626,28354,37,20
158,27625,28356,36,21
159,27626,28358,36,21
160,27624,28356,34,20
161,27626,28361,35,20
162,27632,28361,37,22
163,27628,28362,36,21
164,27627,28361,35,20
165,27627,28364,38,20
166,27634,28360,36,20
167,27636,28365,36,22
168,27637,28356,35,20
169,27628,28367,34,22
170,27640,28363,35,21
171,27641,28360,37,21
172,27643,28363,35,23
173,27643,28366,37,21
174,27643,28366,36,20
175,27646,28366,36,20
176,27653,28367,36,21
177,27653,28355,35,21
178,27641,28356,36,20
179,27642,28361,35,20
180,27647,28369,35,21
181,27660,28365,36,21
182,27655,28365,38,20
183,27653,28363,36,22
184,27656,28362,36,19
185,27655,28365,37,20
186,27658,28367,35,20
187,27655,28367,36,19
188,27653,28366,36,19
189,27655,28365,36,20
190,27658,28366,35,19
191,27660,28370,34,21
192,27662,28365,35,20
193,27657,28368,36,21
194,27667,28370,36,22
195,27674,28371,35,22
196,27675,28369,35,21
197,27671,28369,35,21
198,27671,28369,36,20
199,27673,28368,34,22
200,27669,28373,35,21
201,27673,28372,35,20
202,27671,28373,35,22
203,27677,28374,35,21
204,27680,28373,35,21
205,27687,28369,37,20
206,27675,28370,35,21
207,27671,28369,36,21
208,27675,28375,35,22
209,27685,28371,36,20
210,27683,28366,36,20
211,27672,28371,35,21
212,27676,28371,34,22
213,27686,28375,35,21
214,27692,28376,35,19
215,27691,28374,36,21
216,27684,28365,35,21
217,27676,28370,35,21
218,27690,28366,35,21
219,27678,28373,37,21
220,27682,28363,36,21
221,27672,28373,36,22
222,27689,28372,36,19
223,27694,28373,37,22
224,27696,28374,33,21
225,27693,28376,36,21
226,27690,28373,35,21
227,27697,28371,36,20
228,27698,28375,36,21
229,27699,28380,36,21
230,27704,28372,37,20
231,27694,28381,35,22
232,27706,28381,37,20
233,27711,28375,35,21
234,27705,28376,37,19
235,27707,28378,37,20
236,27716,28379,35,21
237,27728,28381,35,20
238,27729,28386,35,22
239,27731,28385,36,20
240,27726,28375,37,20
241,27717,28383,37,20
242,27717,28388,37,21
243,27717,28387,37,23
244,27710,28380,36,21
245,27700,28384,36,20
246,27703,28382,36,20
247,27695,28386,36,21
248,27693,28383,35,21
249,27681,28390,35,20
250,27683,28390,36,20
251,27683,28391,35,20
252,27682,28388,35,21
253,27668,28389,35,20
254,27663,28394,35,21
255,27669,28391,36,20
256,27665,28402,35,20
257,27670,28403,36,22
258,27664,28398,34,22
259,27664,28393,35,21
260,27661,28399,37,21
261,27672,28398,36,21
262,27664,28400,36,21
263,27664,28398,35,20
264,27661,28401,36,21
265,27675,28409,35,21
266,27685,28402,34,21
267,27677,28403,37,19
268,27673,28404,36,20
269,27679,28414,36,20
270,27693,28403,36,21
271,27680,28409,33,21
272,27682,28407,34,21
273,27680,28406,37,20
274,27682,28406,34,21
275,27688,28405,36,20
276,27682,28399,34,21
277,27677,28400,36,20
278,27680,28397,36,22
279,27681,28397,35,20
280,27685,28402,36,20
281,27684,28393,35,21
282,27675,28396,34,21
283,27682,28397,37,20
284,27689,28388,34,20
285,27678,28391,35,21
286,27679,28392,36,21
287,27686,28387,37,22
288,27690,28393,36,21
289,27709,28395,34,22
290,27734,28393,37,20
291,27748,28390,36,21
292,27756,28392,35,20
293,27770,28397,37,22
294,27781,28397,35,22
295,27788,28388,35,20
296,27789,28392,36,22
297,27804,28396,36,20
298,27814,28399,35,23
299,27821,28395,36,21
300,27814,28394,36,19
301,27814,28392,36,18
302,27813,28386,36,20
303,27815,28392,35,22
304,27822,28391,37,21
305,27818,28394,35,19
306,27821,28404,35,20
307,27840,28397,36,22
308,27838,28396,34,20
309,27837,28404,37,21
310,27830,28396,36,21
311,27823,28403,36,21
312,27824,28396,35,21
313,27816,28398,35,21
314,27804,28395,35,21
315,27800,28399,36,20
316,27805,28401,36,19
317,27805,28402,36,20
318,27801,28404,37,19
319,27793,28416,34,20
320,27796,28411,36,20
321,27790,28411,37,21
322,27782,28414,37,21
323,27781,28412,36,20
324,27772,28415,35,21
325,27773,28421,35,21
326,27785,28419,37,20
327,27791,28417,34,21
328,27787,28423,37,20
329,27790,28424,37,19
330,27789,28423,35,21
331,27786,28418,37,21
332,27766,28412,35,19
333,27745,28411,35,21
334,27742,28416,34,20
335,27745,28406,36,20
336,27742,28413,35,21
337,27753,28413,36,21
338,27757,28425,36,20
339,27797,28426,35,21
340,27825,28433,35,21
341,27843,28438,37,20
342,27846,28436,36,22
343,27842,28432,36,20
344,27836,28433,36,20
345,27831,28425,35,21
346,27824,28424,36,19
347,27819,28422,36,21
348,27817,28426,34,20
349,27830,28435,36,21
350,27850,28435,35,20
351,27857,28445,35,21
352,27869,28453,36,19
353,27878,28455,34,23
354,27876,28450,37,21
355,27869,28451,36,21
356,27865,28459,36,21
357,27866,28457,35,21
358,27866,28465,35,21
359,27876,28465,35,21
360,27878,28476,35,20
361,27881,28471,36,21
362,27864,28475,37,21
363,27854,28471,35,20
364,27842,28458,34,19
365,27823,28462,36,21
366,27814,28464,37,19
367,27811,28462,37,20
368,27811,28467,35,21
369,27824,28472,36,21
370,27833,28474,37,20
371,27837,28481,35,20
372,27849,28485,35,20
373,27856,28486,35,21
374,27854,28488,34,21
375,27848,28490,36,22
376,27847,28493,35,21
377,27848,28494,34,20
378,27855,28501,35,21
379,27865,28499,36,22
380,27863,28499,36,19
381,27865,28503,35,21
382,27873,28504,35,21
383,27884,28500,36,21
384,27892,28508,36,20
385,27901,28515,35,20
386,27912,28516,35,21
387,27925,28519,37,21
388,27925,28517,35,21
389,27909,28520,37,20
390,27902,28521,37,20
391,27905,28528,35,20
392,27927,28526,36,21
393,27922,28527,36,21
394,27913,28524,36,21
395,27900,28519,35,21
396,27892,28524,34,21
397,27899,28525,37,23
398,27910,28526,36,19
399,27910,28525,35,20
400,27908,28534,36,21
401,27920,28536,34,21
402,27924,28533,35,21
403,27916,28530,35,20
404,27912,28528,36,20
405,27909,28538,37,21
406,27916,28532,35,21
407,27907,28532,36,22
408,27895,28533,35,18
409,27893,28529,36,21
410,27888,28530,35,20
411,27891,28533,37,20
412,27890,28537,35,21
413,27891,28529,35,20
414,27886,28535,36,22
415,27897,28528,36,21
416,27895,28525,35,22
417,27888,28531,35,21
418,27884,28525,36,21
419,27880,28520,34,20
420,27881,28526,36,20
421,27888,28529,36,20
422,27892,28521,35,21
423,27887,28531,37,21
424,27904,28526,35,21
425,27916,28524,35,19
426,27922,28524,36,20
427,27917,28524,37,23
428,27921,28528,35,21
429,27927,28522,35,21
430,27918,28527,37,20
431,27921,28527,37,22
432,27913,28523,36,19
433,27905,28527,36,20
434,27910,28529,35,22
435,27914,28530,34,19
436,27909,28524,34,19
437,27894,28531,35,21
438,27894,28538,36,20
439,27894,28527,34,21
440,27874,28538,36,20
441,27863,28535,34,20
442,27845,28531,36,20
443,27838,28531,34,21
444,27842,28534,35,21
445,27848,28537,36,21
446,27848,28532,35,21
447,27849,28525,35,21
448,27850,28532,36,21
449,27861,28538,38,20
450,27871,28530,35,21
451,27864,28532,35,22
452,27872,28528,35,19
453,27880,28533,35,20
454,27887,28538,34,22
455,27895,28541,35,21
456,27894,28535,36,21
457,27892,28548,35,20
458,27906,28542,34,20
459,27892,28537,36,20
460,27874,28537,36,21
461,27866,28533,36,22
462,27859,28535,35,21
463,27860,28541,35,20
464,27862,28533,35,21
465,27852,28541,36,21
466,27868,28536,34,19
467,27870,28538,36,21
468,27875,28542,36,20
469,27877,28533,36,21
470,27874,28531,37,21
471,27875,28529,34,21
472,27877,28534,35,21
473,27882,28533,36,21
474,27879,28535,37,21
475,27882,28529,36,21
476,27890,28535,37,21
477,27909,28534,36,21
478,27915,28538,35,20
479,27923,28536,36,21
480,27928,28539,35,20
481,27939,28540,36,20
482,27939,28536,35,20
483,27931,28537,36,21
484,27921,28531,34,21
485,27915,28536,35,21
486,27915,28528,36,20
487,27904,28525,36,22
488,27895,28533,35,20
489,27898,28527,34,21
490,27898,28523,34,20
491,27905,28528,35,21
492,27913,28529,36,21
493,27914,28532,36,20
494,27917,28529,36,21
495,27917,28529,35,21
496,27929,28526,35,21
497,27928,28525,36,20
498,27934,28521,35,21
499,27941,28519,36,20
500,27949,28525,36,22
501,27962,28527,36,21
502,27964,28528,36,22
503,27975,28528,36,21
504,27982,28535,35,21
505,27993,28535,34,22
506,27991,28537,35,21
507,27983,28533,36,21
508,27969,28532,35,21
509,27963,28539,36,23
510,27963,28535,35,20
511,27947,28535,35,20
512,27932,28529,36,22
513,27919,28535,37,20
514,27923,28533,36,20
515,27922,28541,36,20
516,27925,28539,35,21
517,27920,28532,36,21
518,27916,28536,35,21
519,27925,28533,36,20
520,27926,28542,35,21
521,27933,28537,36,20
522,27928,28539,34,21
523,27929,28538,35,20
524,27920,28544,35,21
525,27923,28541,35,20
526,27916,28543,34,20
527,27931,28541,36,21
528,27935,28546,35,21
529,27944,28546,35,21
530,27938,28541,34,20
531,27925,28545,36,21
532,27923,28542,37,22
533,27917,28538,36,21
534,27906,28537,35,21
535,27891,28535,37,21
536,27877,28543,34,20
537,27875,28535,34,21
538,27867,28532,35,21
539,27853,28545,35,22
540,27848,28544,35,21
541,27829,28539,36,21
542,27808,28541,34,19
543,27798,28540,34,22
544,27780,28538,34,20
545,27778,28535,35,21
546,27779,28534,35,20
547,27793,28534,34,21
548,27805,28537,35,20
549,27821,28538,36,21
550,27830,28537,35,19
551,27840,28539,34,20
552,27850,28540,35,21
553,27865,28539,35,20
554,27867,28538,35,19
555,27865,28546,35,21
556,27871,28540,35,20
557,27871,28537,35,21
558,27860,28543,35,21
559,27855,28542,34,19
560,27845,28538,35,20
561,27835,28538,35,19
562,27826,28535,35,20
563,27816,28538,34,20
564,27813,28538,33,21
565,27807,28530,34,20
566,27804,28536,34,21
567,27809,28535,35,21
568,27807,28530,34,21
569,27805,28527,35,21
570,27808,28525,35,21
571,27813,28530,35,21
572,27824,28522,36,23
573,27820,28529,35,21
574,27838,28530,36,20
575,27848,28532,34,21
576,27860,28532,36,21
577,27855,28533,34,20
578,27846,28533,35,19
579,27843,28531,34,19
580,27833,28528,35,20
581,27821,28527,36,20
582,27810,28535,35,20
583,27811,28534,35,20
584,27809,28526,34,20
585,27804,28533,36,19
586,27805,28535,36,22
587,27800,28534,36,20
588,27788,28534,36,19
589,27782,28527,35,21
590,27773,28529,36,21
591,27775,28525,36,21
592,27765,28535,35,22
593,27776,28530,35,20
594,27776,28524,36,21
595,27773,28534,35,20
596,27788,28537,36,21
597,27795,28533,36,20
598,27797,28539,36,22
599,27809,28533,36,22
600,27806,28524,35,21
601,27796,28536,33,20
602,27804,28531,33,21
603,27807,28534,35,21
604,27811,28536,34,21
605,27808,28542,34,21
606,27814,28531,35,21
607,27806,28536,35,20
608,27815,28532,35,19
609,27818,28541,34,22
610,27822,28541,35,22
611,27814,28534,35,20
612,27800,28541,36,21
613,27805,28540,35,20
614,27801,28540,35,20
615,27792,28534,35,21
616,27781,28539,33,21
617,27779,28535,33,21
618,27777,28536,33,20
619,27778,28538,34,21
620,27777,28538,35,21
621,27781,28541,34,20
622,27794,28539,35,21
623,27803,28532,35,20
624,27804,28534,35,20
625,27809,28537,34,20
626,27816,28541,34,22
627,27825,28545,35,22
628,27839,28538,34,21
629,27837,28538,35,20
630,27835,28537,35,21
631,27842,28541,34,21
632,27853,28534,35,21
633,27845,28543,35,20
634,27851,28546,35,21
635,27852,28543,35,20
636,27850,28545,35,21
637,27846,28540,35,20
638,27834,28543,36,20
639,27825,28553,36,21
640,27822,28551,33,22
641,27821,28550,35,21
642,27823,28556,34,20
643,27827,28556,37,21
644,27820,28557,35,20
645,27818,28551,36,21
646,27814,28557,36,21
647,27817,28549,34,22
648,27801,28556,35,21
649,27806,28559,36,20
650,27810,28552,33,20
651,27806,28551,35,20
652,27806,28549,36,22
653,27807,28554,35,20
654,27818,28546,34,20
655,27818,28552,36,20
656,27825,28548,35,20
657,27818,28549,36,21
658,27820,28539,34,21
659,27811,28549,34,20
660,27821,28542,34,20
661,27822,28543,34,20
662,27818,28541,33,20
663,27816,28553,36,19
664,27826,28541,33,21
665,27817,28544,33,20
666,27824,28551,35,22
667,27826,28546,34,19
668,27818,28548,34,20
669,27822,28548,34,20
670,27824,28549,35,22
671,27821,28543,33,21
672,27813,28550,35,20
673,27826,28544,34,20
674,27825,28548,35,21
675,27826,28555,35,21
676,27832,28553,34,22
677,27833,28551,35,21
678,27833,28551,36,19
679,27839,28560,35,20
680,27849,28548,35,21
681,27830,28555,34,21
682,27835,28564,36,21
683,27839,28554,35,21
684,27832,28556,35,21
685,27834,28556,34,20
686,27824,28564,36,20
687,27827,28558,33,19
688,27824,28561,35,20
689,27827,28563,35,18
690,27824,28565,34,21
691,27820,28568,36,20
692,27831,28565,36,21
693,27826,28559,35,22
694,27821,28554,34,19
695,27813,28556,34,20
696,27813,28560,34,21
697,27820,28565,34,21
698,27833,28564,35,22
699,27833,28568,37,19
700,27836,28564,34,20
701,27832,28558,35,20
702,27829,28565,35,20
703,27838,28556,34,21
704,27828,28564,35,22
705,27829,28571,34,20
706,27836,28566,35,22
707,27837,28562,37,20
708,27836,28574,34,21
709,27844,28574,34,20
710,27842,28570,36,19
711,27847,28574,34,20
712,27851,28565,35,21
713,27843,28578,35,20
714,27851,28576,35,21
715,27847,28576,33,20
716,27853,28571,35,20
717,27855,28573,34,22
718,27854,28580,36,21
719,27856,28585,36,22
720,27859,28580,35,21
721,27854,28584,35,20
722,27860,28568,34,21
723,27843,28579,35,20
724,27847,28584,35,21
725,27854,28579,36,21
726,27850,28579,35,20
727,27850,28578,34,20
728,27840,28585,35,19
729,27842,28590,34,20
730,27850,28583,34,20
731,27844,28582,35,20
732,27841,28587,34,20
733,27840,28583,33,19
734,27832,28580,36,20
735,27832,28584,35,20
736,27832,28594,35,19
737,27837,28579,35,21
738,27824,28584,35,20
739,27827,28590,36,20
740,27838,28586,35,21
741,27834,28590,35,20
742,27838,28586,36,21
743,27830,28586,33,20
744,27834,28591,35,23
745,27842,28587,34,21
746,27839,28583,35,22
747,27829,28593,34,19
748,27836,28591,34,21
749,27836,28589,34,21
750,27835,28586,35,22
751,27828,28593,34,21
752,27831,28585,34,20
753,27827,28595,34,21
754,27837,28591,33,20
755,27835,28596,35,20
756,27835,28591,35,21
757,27827,28592,35,20
758,27833,28585,35,19
759,27831,28600,35,20
760,27845,28596,34,21
761,27838,28600,34,21
762,27841,28600,35,20
763,27844,28595,36,19
764,27841,28598,34,19
765,27838,28599,34,20
766,27836,28591,35,21
767,27831,28601,35,21
768,27846,28599,34,21
769,27844,28603,35,21
770,27843,28595,34,19
771,27835,28597,33,20
772,27836,28603,36,21
773,27844,28610,34,20
774,27854,28602,35,21
775,27845,28600,35,20
776,27843,28598,35,21
777,27842,28608,34,22
778,27855,28606,35,21
779,27854,28606,35,21
780,27853,28606,33,22
781,27849,28610,35,21
782,27856,28615,36,20
783,27866,28608,36,20
784,27857,28607,34,21
785,27856,28606,34,20
786,27857,28607,33,20
787,27866,28608,33,21
788,27866,28609,35,22
789,27864,28610,33,21
790,27866,28616,35,21
791,27875,28611,35,22
792,27876,28617,34,21
793,27879,28612,35,20
794,27870,28611,36,21
795,27865,28614,34,20
796,27873,28613,34,20
797,27874,28610,34,21
798,27873,28612,34,21
799,27872,28615,36,20
800,27873,28614,35,19
801,27878,28614,35,20
802,27884,28620,35,19
803,27884,28617,35,21
804,27876,28619,35,22
805,27876,28618,36,20
806,27879,28623,36,21
807,27879,28622,34,20
808,27874,28625,35,21
809,27877,28623,35,20
810,27873,28619,35,20
811,27872,28618,33,21
812,27867,28617,36,22
813,27862,28614,34,21
814,27859,28623,35,21
815,27869,28626,36,22
816,27876,28621,35,20
817,27868,28612,35,20
818,27860,28620,34,20
819,27872,28621,34,21
820,27880,28614,35,21
821,27875,28622,36,21
822,27880,28629,34,21
823,27882,28627,33,21
824,27881,28624,34,21
825,27880,28623,34,20
826,27878,28625,35,21
827,27881,28623,34,21
828,27880,28625,33,22
829,27886,28625,35,22
830,27883,28633,33,19
831,27880,28624,32,21
832,27860,28628,35,21
833,27858,28626,35,20
834,27850,28629,35,21
835,27850,28632,33,19
836,27852,28629,33,21
837,27846,28629,33,22
838,27846,28633,34,21
839,27852,28639,34,22
840,27861,28637,34,21
841,27859,28637,34,19
842,27854,28629,34,20
843,27854,28631,35,21
844,27856,28638,32,21
845,27859,28640,34,20
846,27856,28636,34,21
847,27856,28630,34,21
848,27861,28638,36,20
849,27872,28638,34,20
850,27870,28638,36,20
851,27867,28631,34,21
852,27861,28638,36,21
853,27871,28640,36,21
854,27873,28632,34,20
855,27864,28637,34,20
856,27867,28648,35,21
857,27883,28642,35,21
858,27885,28639,35,21
859,27880,28641,33,21
860,27878,28646,34,21
861,27884,28642,34,20
862,27885,28644,35,21
863,27887,28639,35,21
864,27881,28649,34,22
865,27889,28650,35,20
866,27892,28649,34,21
867,27897,28650,34,20
868,27896,28654,35,21
869,27892,28650,33,21
870,27887,28648,34,20
871,27889,28650,36,21
872,27893,28649,35,21
873,27894,28643,35,21
874,27887,28647,34,19
875,27888,28650,35,21
876,27895,28653,35,20
877,27904,28656,33,20
878,27906,28652,34,19
879,27897,28657,36,21
880,27900,28653,35,21
881,27900,28648,34,20
882,27886,28655,34,21
883,27888,28651,35,21
884,27883,28649,35,21
885,27881,28653,35,20
886,27883,28661,35,21
887,27891,28655,36,21
888,27879,28656,35,20
889,27877,28660,34,19
890,27884,28654,34,19
891,27882,28651,34,22
892,27877,28656,34,21
893,27874,28651,34,22
894,27864,28656,34,20
895,27873,28651,34,20
896,27869,28666,34,22
897,27879,28658,35,21
898,27867,28655,35,21
899,27867,28659,36,20
900,27874,28659,34,21
901,27873,28655,37,20
902,27866,28658,34,21
903,27873,28658,34,21
904,27873,28662,33,20
905,27885,28658,35,19
906,27876,28664,35,19
907,27878,28662,35,20
908,27875,28660,34,21
909,27873,28665,35,21
910,27884,28670,34,20
911,27889,28667,34,20
912,27886,28659,35,21
913,27883,28666,33,20
914,27896,28672,34,20
915,27901,28665,36,21
916,27890,28670,34,19
917,27892,28671,36,22
918,27895,28665,35,19
919,27887,28664,34,20
920,27882,28667,34,19
921,27886,28664,35,20
922,27884,28667,34,19
923,27891,28665,35,21
924,27892,28666,35,22
925,27892,28662,32,21
926,27886,28668,34,20
927,27896,28673,35,22
928,27902,28672,34,20
929,27904,28670,36,20
930,27897,28675,35,21
931,27899,28671,36,20
932,27900,28663,35,20
933,27896,28666,35,20
934,27901,28670,34,20
935,27902,28671,34,22
936,27901,28672,35,21
937,27904,28685,35,21
938,27917,28677,36,21
939,27901,28668,35,21
940,27891,28682,36,23
941,27906,28687,35,22
942,27913,28674,36,20
943,27901,28686,35,21
944,27907,28678,33,20
945,27899,28677,35,20
946,27893,28678,35,20
947,27898,28677,35,20
948,27899,28675,33,22
949,27893,28686,35,21
950,27900,28678,35,20
951,27898,28678,32,21
952,27897,28690,34,20
953,27900,28684,33,21
954,27890,28676,33,20
955,27883,28678,35,21
956,27887,28680,36,20
957,27889,28675,35,21
958,27883,28680,35,20
959,27887,28678,36,22
960,27891,28676,35,21
961,27893,28680,35,20
962,27899,28681,34,20
963,27896,28685,35,22
964,27893,28680,36,20
965,27893,28674,34,20
966,27890,28680,34,20
967,27892,28681,35,21
968,27887,28678,35,21
969,27884,28679,34,20
970,27886,28677,34,22
971,27890,28675,34,21
972,27887,28684,36,20
973,27893,28681,34,21
974,27890,28683,34,22
975,27893,28684,33,21
976,27889,28688,35,21
977,27892,28681,36,21
978,27886,28685,34,19
979,27893,28696,35,20
980,27906,28682,35,20
981,27892,28684,36,20
982,27888,28688,37,19
983,27889,28690,34,22
984,27893,28692,35,20
985,27899,28688,36,21
986,27891,28689,33,21
987,27886,28687,34,22
988,27886,28690,35,19
989,27894,28688,34,20
990,27893,28684,35,20
991,27886,28690,34,20
992,27891,28687,36,21
993,27888,28692,35,21
994,27897,28694,35,21
995,27892,28693,35,20
996,27893,28692,35,20
997,27890,28693,35,21
998,27892,28696,34,20
999,27893,28691,34,19
1000,27887,28692,34,21
