VAL,PPG1,PPG2,BIOZ1,BIOZ2
0,31137,15682,38,0
1,31084,15680,37,0
2,31075,15679,38,0
3,31056,15678,37,0
4,31057,15678,37,0
5,31043,15669,38,0
6,31031,15675,37,0
7,31042,15669,37,0
8,31021,15666,36,0
9,31033,15658,37,0
10,31023,15651,38,0
11,31011,15649,39,0
12,31024,15643,37,0
13,31014,15640,37,0
14,31023,15645,39,0
15,31027,15639,38,0
16,31018,15635,37,0
17,31031,15634,38,0
18,31021,15633,37,0
19,31020,15635,37,0
20,31028,15630,37,0
21,31030,15625,36,0
22,31039,15617,39,0
23,31034,15619,38,0
24,31044,15613,36,0
25,31052,15607,38,0
26,31054,15598,37,0
27,31066,15588,38,0
28,31055,15580,36,0
29,31060,15580,37,0
30,31069,15566,38,0
31,31058,15559,38,0
32,31067,15558,39,0
33,31070,15538,37,0
34,31053,15544,37,0
35,31068,15543,36,0
36,31063,15540,38,0
37,31078,15537,36,0
38,31085,15529,39,0
39,31084,15526,38,0
40,31100,15517,37,0
41,31079,15518,37,0
42,31095,15526,38,0
43,31098,15524,37,0
44,31093,15529,38,0
45,31105,15527,36,0
46,31093,15536,36,0
47,31103,15551,36,0
48,31109,15552,37,0
49,31103,15571,38,0
50,31124,15575,39,0
51,31115,15582,38,0
52,31112,15595,38,0
53,31120,15606,38,0
54,31115,15628,38,0
55,31134,15636,38,0
56,31128,15650,38,0
57,31140,15661,36,0
58,31140,15672,38,0
59,31135,15678,36,0
60,31132,15683,39,0
61,31126,15684,37,0
62,31116,15693,38,0
63,31113,15699,38,0
64,31095,15701,36,0
65,31089,15695,38,0
66,31074,15688,36,0
67,31063,15680,38,0
68,31065,15676,38,0
69,31048,15677,37,0
70,31051,15688,37,0
71,31051,15691,39,0
72,31039,15696,37,0
73,31049,15696,38,0
74,31041,15697,37,0
75,31046,15709,40,0
76,31048,15717,39,0
77,31043,15735,37,0
78,31056,15739,37,0
79,31049,15746,38,0
80,31057,15756,39,0
81,31067,15761,39,0
82,31071,15760,38,0
83,31081,15764,38,0
84,31084,15751,37,0
85,31084,15752,38,0
86,31094,15748,36,0
87,31090,15750,38,0
88,31099,15757,38,0
89,31097,15751,36,0
90,31087,15766,36,0
91,31103,15765,37,0
92,31090,15763,36,0
93,31100,15762,37,0
94,31084,15762,38,0
95,31095,15760,36,0
96,31110,15756,35,0
97,31099,15764,37,0
98,31124,15767,37,0
99,31113,15771,37,0
100,31118,15782,38,0
101,31124,15787,35,0
102,31112,15784,37,0
103,31122,15797,37,0
104,31124,15795,36,0
105,31117,15805,36,0
106,31139,15808,37,0
107,31128,15816,38,0
108,31148,15824,37,0
109,31151,15820,37,0
110,31136,15825,37,0
111,31153,15830,38,0
112,31141,15827,38,0
113,31161,15834,39,0
114,31156,15846,37,0
115,31151,15868,37,0
116,31166,15881,37,0
117,31152,15887,38,0
118,31149,15897,37,0
119,31149,15908,35,0
120,31138,15926,37,0
121,31135,15941,37,0
122,31123,15941,39,0
123,31100,15956,36,0
124,31106,15953,38,0
125,31091,15942,37,0
126,31081,15952,37,0
127,31086,15962,37,0
128,31077,15958,40,0
129,31079,15962,37,0
130,31076,15959,38,0
131,31086,15966,37,0
132,31080,15979,36,0
133,31085,15988,38,0
134,31084,15987,37,0
135,31094,15980,36,0
136,31095,15985,38,0
137,31099,15977,38,0
138,31101,15977,41,0
139,31118,15975,39,0
140,31119,15958,36,0
141,31130,15951,37,0
142,31129,15947,38,0
143,31138,15947,36,0
144,31151,15945,37,0
145,31143,15951,38,0
146,31155,15959,37,0
147,31166,15961,37,0
148,31150,15968,37,0
149,31152,15978,37,0
150,31144,15980,36,0
151,31149,15989,37,0
152,31146,15984,38,0
153,31126,15993,38,0
154,31138,15999,36,0
155,31135,15993,38,0
156,31132,15991,37,0
157,31151,15985,38,0
158,31147,15980,38,0
159,31167,15988,37,0
160,31167,15989,38,0
161,31164,15993,37,0
162,31175,15996,38,0
163,31175,16000,40,0
164,31182,15997,38,0
165,31183,15991,38,0
166,31182,15994,36,0
167,31198,15999,36,0
168,31191,16000,36,0
169,31200,16014,37,0
170,31214,16013,38,0
171,31207,16029,37,0
172,31218,16043,37,0
173,31209,16044,37,0
174,31205,16054,38,0
175,31204,16063,39,0
176,31192,16075,37,0
177,31194,16089,35,0
178,31176,16095,38,0
179,31174,16094,36,0
180,31170,16079,39,0
181,31148,16068,37,0
182,31153,16069,38,0
183,31138,16061,37,0
184,31133,16051,38,0
185,31125,16040,37,0
186,31118,16038,37,0
187,31124,16037,36,0
188,31120,16034,35,0
189,31116,16030,36,0
190,31118,16028,37,0
191,31113,16012,37,0
192,31119,16005,38,0
193,31122,16005,37,0
194,31124,15993,37,0
195,31136,15987,38,0
196,31130,15975,38,0
197,31141,15970,38,0
198,31144,15955,37,0
199,31141,15946,38,0
200,31156,15950,36,0
201,31150,15942,38,0
202,31151,15950,37,0
203,31146,15958,36,0
204,31142,15964,36,0
205,31146,15968,37,0
206,31143,15965,38,0
207,31139,15975,37,0
208,31139,15972,37,0
209,31118,15970,37,0
210,31129,15976,37,0
211,31118,15984,37,0
212,31129,15982,37,0
213,31134,15989,37,0
214,31132,15994,38,0
215,31151,16006,38,0
216,31148,16006,38,0
217,31145,16014,37,0
218,31159,16011,39,0
219,31151,16011,38,0
220,31159,16015,38,0
221,31154,16014,37,0
222,31147,16026,38,0
223,31162,16020,36,0
224,31156,16022,36,0
225,31172,16013,38,0
226,31172,15999,37,0
227,31176,16002,36,0
228,31195,16006,37,0
229,31187,16016,38,0
230,31190,16027,38,0
231,31194,16017,38,0
232,31184,16008,37,0
233,31189,16003,37,0
234,31184,15987,37,0
235,31180,15981,37,0
236,31176,15974,35,0
237,31163,15969,37,0
238,31170,15955,39,0
239,31152,15951,37,0
240,31153,15958,39,0
241,31147,15961,37,0
242,31123,15957,38,0
243,31110,15971,37,0
244,31111,15962,39,0
245,31095,15971,38,0
246,31100,15979,39,0
247,31091,15986,37,0
248,31092,15999,37,0
249,31095,16002,37,0
250,31086,16018,38,0
251,31100,16018,37,0
252,31088,16021,37,0
253,31098,16018,36,0
254,31091,16009,37,0
255,31093,16011,38,0
256,31118,16012,37,0
257,31115,16019,38,0
258,31123,16027,37,0
259,31123,16025,38,0
260,31132,16018,38,0
261,31142,16005,37,0
262,31133,15996,39,0
263,31131,16009,38,0
264,31134,16010,39,0
265,31118,16015,39,0
266,31138,16012,38,0
267,31126,16014,39,0
268,31130,16021,36,0
269,31127,16026,38,0
270,31120,16020,37,0
271,31120,16020,36,0
272,31123,16021,37,0
273,31122,16025,38,0
274,31130,16032,39,0
275,31130,16030,37,0
276,31142,16034,39,0
277,31149,16024,37,0
278,31152,16015,39,0
279,31160,16008,38,0
280,31158,15993,37,0
281,31165,15995,39,0
282,31179,15985,38,0
283,31176,15987,38,0
284,31191,15996,36,0
285,31188,15990,37,0
286,31195,15986,39,0
287,31200,15974,35,0
288,31199,15976,36,0
289,31212,15970,36,0
290,31182,15983,38,0
291,31183,16011,37,0
292,31183,16027,38,0
293,31165,16048,38,0
294,31167,16072,38,0
295,31155,16074,37,0
296,31131,16081,38,0
297,31126,16076,36,0
298,31099,16085,38,0
299,31101,16099,38,0
300,31092,16104,39,0
301,31091,16115,37,0
302,31098,16107,37,0
303,31091,16102,38,0
304,31096,16101,36,0
305,31096,16088,38,0
306,31095,16082,36,0
307,31099,16074,37,0
308,31097,16061,37,0
309,31105,16065,38,0
310,31108,16062,36,0
311,31109,16060,38,0
312,31119,16061,36,0
313,31112,16045,36,0
314,31122,16042,36,0
315,31123,16042,38,0
316,31123,16041,38,0
317,31130,16037,37,0
318,31120,16040,36,0
319,31132,16036,38,0
320,31126,16033,37,0
321,31120,16029,37,0
322,31129,16034,36,0
323,31126,16025,36,0
324,31137,16018,38,0
325,31136,16022,38,0
326,31133,16030,37,0
327,31135,16034,38,0
328,31129,16028,37,0
329,31130,16036,37,0
330,31143,16022,37,0
331,31123,16014,36,0
332,31140,16015,38,0
333,31145,16006,38,0
334,31151,16010,37,0
335,31165,15999,37,0
336,31155,15998,38,0
337,31161,16003,37,0
338,31165,16008,40,0
339,31161,16007,38,0
340,31166,15998,36,0
341,31156,15997,36,0
342,31167,15994,37,0
343,31166,15990,38,0
344,31176,15980,38,0
345,31187,15989,37,0
346,31192,15977,38,0
347,31203,15982,38,0
348,31207,15985,37,0
349,31199,15988,39,0
350,31204,15994,38,0
351,31186,16001,36,0
352,31177,16028,38,0
353,31184,16024,37,0
354,31150,16031,38,0
355,31152,16036,38,0
356,31135,16020,37,0
357,31117,16019,37,0
358,31121,16016,37,0
359,31105,16008,38,0
360,31104,15999,37,0
361,31089,15987,38,0
362,31084,15983,37,0
363,31086,15981,38,0
364,31076,15976,37,0
365,31086,15977,37,0
366,31075,15965,39,0
367,31072,15969,38,0
368,31088,15962,38,0
369,31074,15962,38,0
370,31088,15956,38,0
371,31083,15953,39,0
372,31082,15967,37,0
373,31100,15966,39,0
374,31087,15955,37,0
375,31091,15965,38,0
376,31100,15959,36,0
377,31091,15965,38,0
378,31097,15964,36,0
379,31093,15958,37,0
380,31092,15968,37,0
381,31105,15968,38,0
382,31097,15956,38,0
383,31103,15959,36,0
384,31102,15957,38,0
385,31116,15950,37,0
386,31097,15950,39,0
387,31098,15948,39,0
388,31106,15938,37,0
389,31101,15921,37,0
390,31094,15924,36,0
391,31107,15923,37,0
392,31104,15920,36,0
393,31116,15921,37,0
394,31120,15905,37,0
395,31111,15899,38,0
396,31126,15885,39,0
397,31116,15885,37,0
398,31133,15888,38,0
399,31134,15879,38,0
400,31134,15882,36,0
401,31142,15871,38,0
402,31136,15865,36,0
403,31148,15864,38,0
404,31154,15851,37,0
405,31143,15848,37,0
406,31159,15840,38,0
407,31160,15840,37,0
408,31166,15844,37,0
409,31165,15850,40,0
410,31161,15856,39,0
411,31170,15855,37,0
412,31150,15861,37,0
413,31142,15870,36,0
414,31141,15869,39,0
415,31120,15875,37,0
416,31126,15890,39,0
417,31111,15893,38,0
418,31093,15904,37,0
419,31089,15893,38,0
420,31059,15892,36,0
421,31060,15888,38,0
422,31046,15868,38,0
423,31025,15868,37,0
424,31030,15857,37,0
425,31014,15854,38,0
426,31020,15856,38,0
427,31007,15856,38,0
428,31004,15861,38,0
429,31002,15864,38,0
430,30990,15858,38,0
431,30995,15865,39,0
432,30992,15851,38,0
433,30978,15857,36,0
434,30988,15855,37,0
435,30974,15854,37,0
436,30981,15854,37,0
437,30978,15845,38,0
438,30970,15844,36,0
439,30980,15835,38,0
440,30964,15825,37,0
441,30959,15820,37,0
442,30963,15806,37,0
443,30950,15803,37,0
444,30966,15797,37,0
445,30957,15798,37,0
446,30963,15801,38,0
447,30954,15802,37,0
448,30950,15796,35,0
449,30960,15795,36,0
450,30951,15791,39,0
451,30944,15801,37,0
452,30954,15800,39,0
453,30935,15807,38,0
454,30945,15808,38,0
455,30939,15815,39,0
456,30956,15826,38,0
457,30961,15831,37,0
458,30948,15831,37,0
459,30952,15836,38,0
460,30956,15830,36,0
461,30954,15839,38,0
462,30964,15838,38,0
463,30949,15832,38,0
464,30963,15843,39,0
465,30961,15843,38,0
466,30968,15838,36,0
467,30972,15836,37,0
468,30965,15833,37,0
469,30970,15828,36,0
470,30977,15824,37,0
471,30971,15819,38,0
472,30983,15815,37,0
473,30981,15818,38,0
474,30993,15818,38,0
475,30996,15806,38,0
476,30991,15801,36,0
477,31006,15796,36,0
478,30997,15788,36,0
479,31008,15790,37,0
480,31006,15792,37,0
481,30995,15789,38,0
482,30988,15804,38,0
483,30972,15812,36,0
484,30966,15821,39,0
485,30962,15826,39,0
486,30947,15835,37,0
487,30940,15839,38,0
488,30927,15838,39,0
489,30910,15842,38,0
490,30908,15840,37,0
491,30895,15845,37,0
492,30900,15847,37,0
493,30896,15842,37,0
494,30889,15840,39,0
495,30899,15831,36,0
496,30898,15818,38,0
497,30904,15820,37,0
498,30917,15813,38,0
499,30915,15803,36,0
500,30918,15795,36,0
501,30914,15789,38,0
502,30925,15792,37,0
503,30936,15789,37,0
504,30928,15785,37,0
505,30937,15775,40,0
506,30932,15769,38,0
507,30941,15771,36,0
508,30947,15770,38,0
509,30932,15770,36,0
510,30937,15781,39,0
511,30938,15774,37,0
512,30938,15777,37,0
513,30941,15769,38,0
514,30929,15769,39,0
515,30942,15764,36,0
516,30936,15765,38,0
517,30940,15769,36,0
518,30949,15763,36,0
519,30934,15754,37,0
520,30945,15756,38,0
521,30947,15748,38,0
522,30952,15744,38,0
523,30955,15751,38,0
524,30947,15752,37,0
525,30949,15753,37,0
526,30950,15761,38,0
527,30960,15758,38,0
528,30971,15756,36,0
529,30967,15748,38,0
530,30981,15744,37,0
531,30986,15737,37,0
532,30998,15736,37,0
533,31003,15741,37,0
534,31003,15742,39,0
535,31015,15732,38,0
536,31018,15723,38,0
537,31018,15727,36,0
538,31036,15719,39,0
539,31028,15724,38,0
540,31042,15733,37,0
541,31059,15724,38,0
542,31053,15715,38,0
543,31057,15723,39,0
544,31053,15716,38,0
545,31057,15719,38,0
546,31073,15718,38,0
547,31071,15711,37,0
548,31068,15718,37,0
549,31074,15712,37,0
550,31069,15711,37,0
551,31070,15717,38,0
552,31058,15720,39,0
553,31060,15721,36,0
554,31045,15716,37,0
555,31038,15723,38,0
556,31041,15721,38,0
557,31030,15715,38,0
558,31022,15715,37,0
559,31015,15705,37,0
560,31003,15710,38,0
561,31006,15706,36,0
562,30996,15706,37,0
563,31000,15711,36,0
564,31004,15707,37,0
565,30993,15706,37,0
566,31009,15707,38,0
567,30998,15707,37,0
568,31006,15715,36,0
569,31011,15718,37,0
570,31009,15723,38,0
571,31023,15718,39,0
572,31009,15719,37,0
573,31016,15730,37,0
574,31028,15721,37,0
575,31019,15724,39,0
576,31043,15725,37,0
577,31036,15728,38,0
578,31046,15735,36,0
579,31064,15729,38,0
580,31055,15725,38,0
581,31059,15728,37,0
582,31064,15725,37,0
583,31058,15734,38,0
584,31065,15739,37,0
585,31054,15739,39,0
586,31055,15748,37,0
587,31063,15740,38,0
588,31055,15747,37,0
589,31066,15750,36,0
590,31065,15744,38,0
591,31073,15751,38,0
592,31076,15753,37,0
593,31075,15756,37,0
594,31094,15752,36,0
595,31086,15753,37,0
596,31095,15752,39,0
597,31099,15742,38,0
598,31100,15750,37,0
599,31122,15743,37,0
600,31116,15745,38,0
601,31128,15741,36,0
602,31132,15733,38,0
603,31127,15730,37,0
604,31141,15727,36,0
605,31135,15730,36,0
606,31146,15720,37,0
607,31142,15734,37,0
608,31154,15732,36,0
609,31162,15745,38,0
610,31166,15733,36,0
611,31157,15741,38,0
612,31170,15738,37,0
613,31168,15737,38,0
614,31177,15749,36,0
615,31176,15755,38,0
616,31165,15773,37,0
617,31177,15778,38,0
618,31167,15779,39,0
619,31161,15797,37,0
620,31150,15809,37,0
621,31135,15821,39,0
622,31133,15823,37,0
623,31110,15823,38,0
624,31112,15818,38,0
625,31103,15808,37,0
626,31090,15820,38,0
627,31109,15822,38,0
628,31100,15807,37,0
629,31091,15799,37,0
630,31085,15787,38,0
631,31067,15781,38,0
632,31072,15782,37,0
633,31065,15789,36,0
634,31070,15801,36,0
635,31083,15794,37,0
636,31066,15797,37,0
637,31091,15799,37,0
638,31090,15789,37,0
639,31091,15800,39,0
640,31108,15791,38,0
641,31096,15789,38,0
642,31103,15788,37,0
643,31100,15789,36,0
644,31098,15799,36,0
645,31118,15801,38,0
646,31112,15802,36,0
647,31120,15799,36,0
648,31119,15798,38,0
649,31119,15793,37,0
650,31115,15785,39,0
651,31110,15787,37,0
652,31123,15786,37,0
653,31114,15783,36,0
654,31116,15782,38,0
655,31124,15771,38,0
656,31119,15757,38,0
657,31126,15757,37,0
658,31124,15744,37,0
659,31128,15735,37,0
660,31133,15733,39,0
661,31134,15721,37,0
662,31127,15731,36,0
663,31145,15717,38,0
664,31131,15719,38,0
665,31152,15718,36,0
666,31155,15722,37,0
667,31164,15728,37,0
668,31174,15732,39,0
669,31171,15741,38,0
670,31179,15749,38,0
671,31187,15749,38,0
672,31178,15758,38,0
673,31195,15759,38,0
674,31187,15761,37,0
675,31197,15769,38,0
676,31201,15770,39,0
677,31198,15790,38,0
678,31216,15798,37,0
679,31205,15800,39,0
680,31212,15803,38,0
681,31218,15800,37,0
682,31214,15798,37,0
683,31225,15803,37,0
684,31217,15810,38,0
685,31211,15828,39,0
686,31218,15833,38,0
687,31204,15837,38,0
688,31212,15834,37,0
689,31186,15838,37,0
690,31179,15846,37,0
691,31175,15847,37,0
692,31159,15849,37,0
693,31157,15848,37,0
694,31140,15840,37,0
695,31127,15846,37,0
696,31126,15851,37,0
697,31115,15854,37,0
698,31114,15860,38,0
699,31115,15852,38,0
700,31102,15856,35,0
701,31114,15853,36,0
702,31099,15854,36,0
703,31114,15857,39,0
704,31107,15856,37,0
705,31107,15859,37,0
706,31113,15865,36,0
707,31106,15869,37,0
708,31121,15879,38,0
709,31121,15888,38,0
710,31120,15895,35,0
711,31125,15913,38,0
712,31118,15930,36,0
713,31125,15958,37,0
714,31136,15969,37,0
715,31129,15988,38,0
716,31141,16006,36,0
717,31126,16023,37,0
718,31136,16037,37,0
719,31143,16036,37,0
720,31126,16050,38,0
721,31133,16059,38,0
722,31133,16060,38,0
723,31127,16076,39,0
724,31136,16082,37,0
725,31142,16084,38,0
726,31160,16076,36,0
727,31144,16065,39,0
728,31149,16073,37,0
729,31160,16067,37,0
730,31143,16073,37,0
731,31157,16080,36,0
732,31150,16083,38,0
733,31150,16105,37,0
734,31175,16107,37,0
735,31157,16112,37,0
736,31176,16110,38,0
737,31185,16101,39,0
738,31178,16110,36,0
739,31198,16112,37,0
740,31183,16135,38,0
741,31204,16134,37,0
742,31204,16132,35,0
743,31201,16143,38,0
744,31214,16145,36,0
745,31211,16153,37,0
746,31217,16170,39,0
747,31222,16177,38,0
748,31220,16186,37,0
749,31235,16186,38,0
750,31223,16194,39,0
751,31234,16207,37,0
752,31235,16214,37,0
753,31225,16227,38,0
754,31227,16247,37,0
755,31219,16256,39,0
756,31210,16269,37,0
757,31212,16273,37,0
758,31185,16279,37,0
759,31186,16286,37,0
760,31170,16291,37,0
761,31163,16292,36,0
762,31155,16292,38,0
763,31142,16302,38,0
764,31146,16308,35,0
765,31133,16314,39,0
766,31136,16320,37,0
767,31142,16315,36,0
768,31132,16307,37,0
769,31137,16315,38,0
770,31136,16315,37,0
771,31143,16311,37,0
772,31148,16304,38,0
773,31144,16301,37,0
774,31150,16303,38,0
775,31160,16304,36,0
776,31161,16294,39,0
777,31165,16301,38,0
778,31172,16298,38,0
779,31176,16304,38,0
780,31180,16301,39,0
781,31172,16301,39,0
782,31177,16306,38,0
783,31169,16302,37,0
784,31175,16314,38,0
785,31186,16309,38,0
786,31178,16304,38,0
787,31188,16301,36,0
788,31178,16292,39,0
789,31179,16293,38,0
790,31189,16289,36,0
791,31186,16276,37,0
792,31192,16269,36,0
793,31197,16259,36,0
794,31195,16249,38,0
795,31198,16243,37,0
796,31189,16235,37,0
797,31206,16232,37,0
798,31206,16223,37,0
799,31202,16220,37,0
800,31225,16213,37,0
801,31216,16212,39,0
802,31225,16213,38,0
803,31223,16215,37,0
804,31233,16229,35,0
805,31245,16234,39,0
806,31238,16234,36,0
807,31253,16242,39,0
808,31262,16245,37,0
809,31262,16253,39,0
810,31273,16242,37,0
811,31265,16244,39,0
812,31281,16250,38,0
813,31292,16245,38,0
814,31291,16245,37,0
815,31294,16253,38,0
816,31290,16265,36,0
817,31299,16285,37,0
818,31306,16288,38,0
819,31283,16303,37,0
820,31290,16315,36,0
821,31269,16314,38,0
822,31258,16327,38,0
823,31256,16325,38,0
824,31232,16327,36,0
825,31237,16336,38,0
826,31221,16330,38,0
827,31215,16325,38,0
828,31220,16319,37,0
829,31212,16314,36,0
830,31214,16319,38,0
831,31211,16316,38,0
832,31204,16318,37,0
833,31219,16321,37,0
834,31217,16323,37,0
835,31226,16329,37,0
836,31227,16332,38,0
837,31224,16344,38,0
838,31233,16342,37,0
839,31224,16333,36,0
840,31236,16338,37,0
841,31241,16332,37,0
842,31236,16337,38,0
843,31242,16341,38,0
844,31242,16335,37,0
845,31241,16351,38,0
846,31257,16351,38,0
847,31240,16358,37,0
848,31259,16358,36,0
849,31250,16363,36,0
850,31248,16388,37,0
851,31266,16400,37,0
852,31256,16409,37,0
853,31270,16417,38,0
854,31270,16422,38,0
855,31266,16436,39,0
856,31275,16443,36,0
857,31276,16446,39,0
858,31279,16448,37,0
859,31275,16446,37,0
860,31270,16458,38,0
861,31282,16466,38,0
862,31273,16469,39,0
863,31286,16478,37,0
864,31298,16485,38,0
865,31297,16489,38,0
866,31307,16492,38,0
867,31303,16504,39,0
868,31316,16523,38,0
869,31323,16531,38,0
870,31312,16548,38,0
871,31336,16547,37,0
872,31335,16538,37,0
873,31339,16542,38,0
874,31352,16540,37,0
875,31357,16548,37,0
876,31369,16559,37,0
877,31370,16561,38,0
878,31378,16573,39,0
879,31389,16571,36,0
880,31374,16580,38,0
881,31376,16599,37,0
882,31371,16603,37,0
883,31356,16615,37,0
884,31363,16614,37,0
885,31343,16615,37,0
886,31346,16600,38,0
887,31325,16592,39,0
888,31319,16576,37,0
889,31317,16567,38,0
890,31303,16558,37,0
891,31303,16543,37,0
892,31301,16525,36,0
893,31296,16516,39,0
894,31307,16509,37,0
895,31293,16508,36,0
896,31292,16506,37,0
897,31294,16496,39,0
898,31291,16489,38,0
899,31310,16482,37,0
900,31301,16481,40,0
901,31309,16490,38,0
902,31322,16486,38,0
903,31314,16472,37,0
904,31326,16462,37,0
905,31325,16456,37,0
906,31325,16458,37,0
907,31343,16448,37,0
908,31330,16449,38,0
909,31345,16449,38,0
910,31344,16433,38,0
911,31339,16441,37,0
912,31354,16433,39,0
913,31340,16446,38,0
914,31350,16450,37,0
915,31343,16432,37,0
916,31342,16434,37,0
917,31347,16438,37,0
918,31338,16451,40,0
919,31352,16457,36,0
920,31349,16459,38,0
921,31351,16472,37,0
922,31363,16480,37,0
923,31357,16490,37,0
924,31355,16498,37,0
925,31355,16490,37,0
926,31356,16486,38,0
927,31369,16501,38,0
928,31376,16500,38,0
929,31378,16511,38,0
930,31385,16507,39,0
931,31383,16503,39,0
932,31397,16499,38,0
933,31396,16500,38,0
934,31396,16506,37,0
935,31397,16506,38,0
936,31397,16510,37,0
937,31417,16511,39,0
938,31411,16511,39,0
939,31413,16532,38,0
940,31431,16528,36,0
941,31417,16531,37,0
942,31428,16538,37,0
943,31411,16542,36,0
944,31398,16560,38,0
945,31404,16574,39,0
946,31381,16593,38,0
947,31382,16594,38,0
948,31365,16594,39,0
949,31344,16598,39,0
950,31344,16593,36,0
951,31324,16583,37,0
952,31324,16581,37,0
953,31319,16585,38,0
954,31320,16587,39,0
955,31322,16587,38,0
956,31321,16578,37,0
957,31328,16574,37,0
958,31332,16559,37,0
959,31321,16560,37,0
960,31335,16565,38,0
961,31326,16570,37,0
962,31336,16583,38,0
963,31346,16585,36,0
964,31336,16589,37,0
965,31344,16594,38,0
966,31346,16592,38,0
967,31349,16605,38,0
968,31357,16607,38,0
969,31353,16608,38,0
970,31363,16618,37,0
971,31361,16616,39,0
972,31364,16619,37,0
973,31371,16619,38,0
974,31361,16618,37,0
975,31377,16610,39,0
976,31371,16604,37,0
977,31369,16617,38,0
978,31383,16611,38,0
979,31372,16619,38,0
980,31387,16621,38,0
981,31375,16618,37,0
982,31371,16624,38,0
983,31384,16617,38,0
984,31366,16619,38,0
985,31380,16624,38,0
986,31382,16629,36,0
987,31384,16632,38,0
988,31394,16630,37,0
989,31384,16632,37,0
990,31396,16647,37,0
991,31405,16636,36,0
992,31397,16643,36,0
993,31413,16654,38,0
994,31415,16665,38,0
995,31419,16680,37,0
996,31426,16687,38,0
997,31419,16692,38,0
998,31425,16711,38,0
999,31420,16728,37,0
