VAL,PPG1,PPG2,BIOZ1,BIOZ2
0,11564,6660,32,19
1,11601,6658,31,19
2,11578,6660,30,18
3,11555,6659,31,19
4,11563,6664,31,18
5,11580,6667,30,19
6,11578,6663,32,19
7,11557,6661,31,20
8,11535,6664,31,18
9,11549,6666,31,18
10,11581,6669,32,20
11,11582,6665,31,18
12,11556,6666,31,20
13,11558,6670,31,19
14,11583,6674,33,18
15,11613,6676,31,18
16,11618,6671,31,18
17,11600,6674,30,18
18,11606,6676,31,19
19,11635,6679,32,20
20,11659,6679,30,19
21,11639,6681,30,20
22,11644,6685,31,19
23,11667,6691,32,19
24,11688,6692,30,19
25,11688,6693,30,19
26,11677,6698,31,19
27,11676,6698,30,19
28,11692,6698,32,18
29,11715,6701,30,19
30,11720,6701,30,19
31,11704,6701,30,21
32,11700,6707,33,20
33,11731,6712,31,19
34,11747,6713,31,19
35,11730,6711,30,19
36,11716,6714,30,20
37,11713,6715,31,18
38,11727,6716,33,19
39,11733,6715,30,20
40,11695,6713,32,19
41,11667,6711,31,19
42,11660,6710,31,17
43,11642,6703,32,18
44,11596,6698,29,19
45,11550,6696,32,18
46,11525,6690,31,17
47,11521,6689,31,19
48,11528,6684,31,18
49,11496,6680,29,18
50,11461,6678,31,20
51,11469,6675,31,19
52,11480,6678,31,19
53,11495,6678,30,20
54,11476,6675,32,18
55,11456,6676,30,19
56,11476,6678,31,18
57,11500,6678,32,19
58,11501,6676,31,17
59,11485,6679,31,20
60,11500,6683,30,19
61,11518,6682,32,19
62,11518,6682,30,17
63,11505,6685,30,19
64,11488,6684,31,18
65,11501,6688,30,19
66,11522,6688,30,19
67,11538,6685,30,18
68,11515,6690,30,18
69,11498,6689,30,19
70,11504,6687,31,19
71,11520,6693,31,19
72,11528,6689,31,20
73,11501,6688,31,20
74,11491,6690,30,19
75,11494,6691,31,21
76,11515,6691,30,19
77,11507,6690,30,18
78,11482,6693,31,18
79,11501,6694,32,19
80,11514,6694,30,17
81,11509,6695,31,20
82,11492,6694,29,18
83,11485,6696,31,18
84,11503,6696,31,17
85,11523,6700,30,19
86,11539,6700,30,18
87,11515,6701,31,20
88,11505,6703,32,20
89,11528,6707,30,19
90,11552,6710,30,19
91,11558,6709,31,19
92,11542,6711,30,20
93,11537,6713,30,19
94,11568,6717,30,17
95,11592,6713,31,19
96,11576,6716,31,18
97,11565,6720,31,18
98,11599,6720,29,19
99,11616,6724,30,18
100,11608,6721,31,20
101,11603,6726,31,19
102,11596,6725,30,18
103,11607,6731,32,19
104,11643,6730,31,18
105,11635,6729,31,18
106,11609,6729,31,19
107,11602,6728,31,19
108,11602,6726,30,17
109,11595,6726,31,19
110,11559,6720,32,18
111,11505,6715,32,21
112,11476,6711,29,20
113,11463,6707,30,18
114,11445,6700,31,18
115,11402,6694,31,18
116,11365,6696,32,18
117,11386,6693,32,18
118,11383,6690,31,17
119,11363,6688,31,18
120,11338,6684,30,18
121,11333,6691,30,18
122,11353,6688,31,17
123,11364,6689,31,20
124,11366,6689,33,18
125,11350,6686,31,20
126,11344,6691,29,17
127,11363,6690,30,20
128,11389,6691,29,19
129,11367,6693,31,20
130,11354,6694,30,18
131,11370,6696,30,19
132,11395,6696,32,19
133,11402,6693,31,21
134,11381,6697,31,19
135,11375,6698,29,18
136,11406,6698,30,19
137,11407,6698,33,18
138,11380,6700,32,19
139,11364,6699,29,20
140,11359,6696,31,17
141,11377,6698,30,19
142,11386,6699,30,19
143,11377,6698,30,18
144,11352,6696,30,18
145,11350,6699,31,17
146,11371,6700,30,18
147,11374,6701,29,20
148,11358,6695,30,19
149,11339,6701,31,18
150,11358,6702,31,19
151,11374,6705,31,18
152,11376,6703,33,18
153,11359,6703,31,20
154,11355,6705,31,18
155,11394,6707,32,19
156,11395,6704,30,18
157,11369,6708,31,19
158,11377,6709,30,19
159,11374,6714,30,19
160,11411,6715,30,18
161,11425,6716,31,18
162,11415,6716,30,19
163,11410,6719,30,19
164,11429,6721,31,18
165,11455,6722,31,18
166,11458,6724,30,18
167,11443,6725,31,17
168,11442,6726,30,20
169,11460,6729,30,18
170,11487,6732,31,20
171,11479,6728,30,19
172,11461,6733,31,19
173,11470,6735,30,19
174,11504,6732,30,20
175,11484,6732,30,19
176,11453,6731,31,19
177,11429,6728,31,19
178,11411,6725,30,21
179,11410,6720,30,19
180,11382,6716,30,19
181,11326,6708,31,18
182,11283,6707,31,18
183,11286,6707,30,19
184,11284,6698,32,17
185,11261,6696,32,20
186,11230,6695,31,20
187,11227,6692,30,18
188,11244,6692,32,18
189,11254,6690,30,19
190,11232,6690,32,19
191,11214,6688,31,19
192,11223,6688,30,18
193,11242,6692,29,18
194,11232,6687,29,19
195,11206,6688,31,18
196,11214,6689,30,18
197,11236,6691,31,20
198,11261,6692,32,18
199,11252,6690,31,19
200,11231,6693,30,20
201,11235,6696,30,19
202,11256,6696,31,19
203,11271,6694,32,18
204,11253,6696,29,19
205,11237,6696,31,19
206,11247,6696,33,19
207,11267,6696,32,19
208,11281,6697,32,21
209,11256,6695,30,21
210,11245,6700,32,18
211,11264,6702,31,19
212,11280,6702,30,21
213,11266,6705,31,19
214,11259,6704,33,21
215,11268,6707,32,20
216,11286,6708,32,20
217,11308,6705,32,20
218,11289,6709,33,19
219,11286,6704,31,21
220,11289,6711,32,20
221,11320,6708,30,20
222,11342,6711,32,18
223,11319,6715,30,17
224,11303,6715,33,19
225,11325,6715,33,19
226,11364,6714,32,19
227,11376,6707,32,20
228,11354,6708,32,20
229,11344,6707,32,20
230,11352,6702,30,19
231,11342,6702,32,19
232,11309,6700,32,18
233,11286,6698,31,19
234,11261,6701,31,19
235,11260,6701,32,20
236,11251,6703,31,20
237,11225,6701,33,21
238,11191,6706,32,20
239,11203,6707,32,18
240,11213,6707,32,19
241,11215,6710,33,19
242,11186,6709,32,19
243,11165,6712,31,21
244,11176,6710,32,18
245,11182,6708,31,19
246,11150,6704,31,19
247,11113,6698,32,18
248,11088,6698,32,21
249,11080,6697,31,20
250,11055,6691,31,19
251,11025,6691,32,20
252,11015,6692,32,21
253,11022,6686,32,18
254,11034,6688,34,19
255,11035,6685,31,17
256,11012,6685,32,21
257,11007,6681,32,20
258,11021,6687,32,19
259,11045,6685,32,20
260,11039,6683,30,19
261,11022,6686,30,19
262,11034,6684,32,19
263,11048,6687,31,20
264,11071,6692,31,19
265,11053,6688,31,20
266,11044,6692,32,19
267,11057,6694,32,20
268,11086,6694,32,20
269,11067,6694,32,19
270,11065,6692,32,20
271,11070,6698,30,19
272,11083,6698,31,18
273,11098,6696,33,19
274,11099,6697,33,20
275,11076,6693,33,18
276,11061,6694,34,19
277,11077,6694,31,20
278,11084,6690,32,20
279,11073,6690,31,18
280,11046,6689,30,20
281,11043,6693,32,20
282,11067,6693,33,19
283,11076,6693,32,20
284,11057,6696,32,19
285,11050,6693,31,19
286,11054,6697,32,19
287,11088,6697,34,19
288,11063,6693,33,19
289,11063,6698,32,18
290,11082,6698,31,19
291,11106,6701,32,19
292,11124,6699,31,20
293,11121,6703,31,18
294,11103,6705,31,21
295,11120,6705,32,20
296,11151,6709,32,20
297,11176,6710,32,20
298,11168,6708,31,20
299,11155,6713,31,20
300,11171,6717,33,19
301,11204,6719,32,20
302,11218,6721,32,20
303,11210,6719,31,21
304,11198,6725,31,21
305,11228,6724,31,20
306,11253,6723,32,19
307,11218,6725,32,18
308,11213,6723,33,19
309,11208,6722,31,20
310,11210,6723,31,19
311,11209,6716,32,19
312,11171,6716,33,20
313,11133,6708,32,20
314,11119,6709,33,18
315,11128,6705,31,19
316,11110,6697,31,19
317,11076,6698,32,19
318,11064,6693,31,18
319,11066,6698,32,19
320,11091,6695,31,19
321,11080,6691,32,20
322,11060,6691,33,20
323,11053,6689,31,20
324,11079,6695,32,19
325,11103,6694,32,20
326,11074,6688,32,20
327,11075,6694,33,20
328,11102,6692,31,19
329,11124,6696,31,20
330,11139,6703,32,19
331,11131,6696,32,19
332,11114,6701,29,20
333,11142,6703,32,21
334,11165,6703,31,20
335,11163,6706,32,19
336,11144,6701,33,20
337,11134,6708,30,18
338,11156,6707,31,18
339,11181,6707,32,19
340,11171,6706,33,19
341,11153,6704,31,18
342,11157,6709,32,19
343,11182,6712,31,20
344,11196,6706,32,19
345,11157,6714,32,19
346,11172,6714,32,20
347,11191,6715,31,20
348,11215,6715,31,18
349,11224,6711,32,19
350,11206,6715,32,19
351,11216,6714,32,19
352,11242,6718,31,19
353,11269,6719,32,20
354,11259,6718,33,19
355,11248,6720,32,18
356,11254,6723,34,20
357,11272,6721,32,22
358,11296,6724,32,19
359,11280,6722,32,19
360,11252,6725,31,18
361,11274,6728,29,20
362,11295,6727,32,20
363,11297,6730,31,21
364,11274,6728,31,20
365,11276,6733,31,21
366,11301,6734,31,19
367,11309,6736,32,20
368,11296,6736,31,19
369,11271,6734,32,18
370,11252,6732,33,18
371,11255,6729,31,20
372,11241,6724,33,19
373,11207,6720,31,20
374,11165,6715,32,20
375,11158,6715,33,17
376,11168,6711,30,19
377,11157,6705,31,19
378,11121,6703,33,19
379,11111,6698,31,18
380,11115,6701,32,20
381,11131,6699,33,19
382,11134,6696,31,19
383,11114,6698,32,19
384,11136,6696,32,19
385,11151,6698,32,20
386,11169,6695,31,19
387,11155,6694,33,19
388,11131,6698,30,19
389,11152,6699,32,20
390,11174,6700,33,19
391,11186,6701,31,20
392,11178,6700,31,20
393,11164,6704,31,20
394,11181,6706,32,19
395,11207,6704,32,20
396,11205,6706,32,19
397,11179,6703,32,20
398,11181,6706,31,20
399,11198,6706,33,20
400,11210,6704,33,19
401,11189,6706,33,20
402,11171,6702,31,20
403,11187,6705,32,21
404,11197,6704,31,21
405,11199,6702,32,20
406,11181,6707,31,20
407,11177,6702,33,20
408,11195,6703,32,19
409,11226,6707,32,20
410,11227,6701,32,21
411,11213,6706,32,21
412,11213,6706,30,20
413,11238,6706,31,20
414,11259,6708,31,17
415,11255,6705,32,19
416,11234,6708,31,18
417,11249,6710,32,20
418,11281,6714,33,19
419,11304,6715,33,20
420,11282,6714,31,19
421,11283,6721,31,19
422,11309,6721,31,18
423,11321,6720,32,17
424,11317,6724,31,19
425,11309,6723,32,20
426,11306,6730,31,20
427,11337,6730,32,17
428,11355,6727,32,19
429,11344,6731,31,19
430,11325,6728,32,20
431,11311,6727,34,20
432,11321,6726,32,20
433,11314,6722,32,20
434,11276,6719,31,19
435,11238,6714,31,20
436,11219,6712,31,20
437,11219,6710,31,20
438,11215,6703,32,20
439,11181,6700,31,19
440,11166,6698,30,19
441,11171,6696,32,18
442,11176,6694,31,20
443,11158,6690,31,19
444,11138,6692,32,19
445,11134,6690,31,19
446,11159,6693,32,20
447,11179,6693,31,20
448,11156,6690,30,19
449,11141,6693,32,20
450,11160,6693,30,20
451,11187,6696,32,19
452,11204,6696,30,20
453,11191,6695,31,20
454,11182,6702,30,19
455,11207,6701,32,21
456,11237,6702,29,19
457,11235,6703,31,20
458,11224,6701,31,18
459,11231,6706,31,21
460,11254,6707,31,19
461,11254,6705,31,19
462,11238,6705,30,20
463,11223,6701,31,19
464,11235,6704,31,20
465,11259,6706,30,20
466,11263,6706,30,18
467,11243,6704,33,18
468,11238,6702,30,19
469,11246,6705,32,20
470,11276,6709,32,21
471,11273,6703,32,20
472,11249,6707,32,21
473,11249,6704,31,20
474,11261,6708,32,19
475,11289,6710,31,19
476,11271,6704,31,20
477,11250,6708,33,21
478,11280,6712,31,20
479,11297,6710,31,18
480,11297,6714,30,18
481,11284,6710,31,19
482,11271,6715,30,20
483,11292,6717,32,18
484,11317,6721,30,20
485,11330,6722,31,20
486,11310,6719,32,20
487,11300,6727,31,20
488,11334,6725,31,20
489,11351,6727,32,21
490,11348,6728,31,19
491,11331,6724,31,20
492,11326,6729,31,20
493,11345,6725,30,20
494,11347,6724,31,18
495,11310,6720,31,20
496,11280,6718,31,20
497,11273,6714,32,19
498,11268,6712,30,19
499,11240,6705,30,20
500,11197,6705,30,20
501,11178,6699,31,20
502,11184,6700,30,19
503,11193,6700,31,21
504,11180,6696,32,20
505,11151,6694,32,20
506,11144,6694,32,18
507,11160,6696,31,18
508,11180,6696,30,21
509,11180,6694,31,19
510,11162,6696,32,20
511,11167,6697,29,20
512,11194,6699,32,19
513,11210,6700,33,19
514,11198,6697,31,22
515,11209,6703,30,19
516,11232,6705,30,19
517,11237,6703,32,19
518,11226,6709,31,20
519,11218,6703,30,20
520,11214,6707,32,20
521,11236,6707,32,20
522,11244,6705,30,18
523,11233,6707,32,19
524,11216,6706,32,19
525,11208,6708,30,19
526,11232,6709,32,22
527,11235,6706,31,19
528,11211,6707,32,19
529,11197,6704,31,18
530,11207,6709,32,19
531,11231,6709,30,20
532,11234,6706,31,18
533,11209,6712,31,18
534,11234,6711,30,18
535,11246,6712,33,20
536,11247,6713,32,21
537,11238,6715,29,20
538,11221,6716,31,19
539,11238,6717,30,19
540,11254,6719,32,19
541,11276,6721,31,19
542,11267,6720,32,20
543,11255,6727,30,19
544,11279,6725,31,19
545,11305,6730,30,20
546,11316,6728,31,19
547,11301,6727,31,20
548,11292,6735,31,18
549,11315,6736,31,19
550,11341,6732,31,20
551,11328,6734,30,19
552,11312,6736,30,18
553,11333,6736,30,20
554,11333,6734,33,18
555,11304,6730,30,19
556,11267,6728,31,19
557,11240,6724,32,18
558,11223,6725,31,20
559,11215,6723,31,19
560,11200,6717,32,19
561,11150,6715,30,19
562,11126,6709,32,19
563,11128,6713,31,20
564,11133,6712,31,18
565,11129,6707,30,18
566,11091,6711,31,19
567,11088,6706,31,21
568,11101,6710,30,21
569,11127,6708,31,18
570,11108,6706,31,19
571,11093,6709,31,21
572,11131,6711,31,19
573,11140,6707,29,19
574,11130,6711,31,20
575,11121,6710,31,20
576,11120,6716,31,19
577,11141,6717,29,20
578,11168,6717,31,19
579,11166,6717,31,19
580,11148,6715,30,18
581,11144,6721,31,20
582,11171,6722,31,21
583,11188,6719,31,20
584,11164,6720,31,19
585,11145,6719,31,19
586,11145,6723,31,20
587,11168,6721,31,20
588,11172,6720,30,20
589,11148,6724,31,19
590,11136,6726,31,20
591,11166,6725,31,20
592,11169,6726,32,20
593,11158,6722,31,18
594,11138,6726,31,19
595,11145,6724,32,19
596,11171,6728,31,19
597,11190,6733,32,19
598,11188,6727,30,19
599,11164,6732,30,21
600,11172,6733,31,20
601,11200,6733,29,18
602,11214,6737,31,20
603,11205,6735,32,19
604,11180,6737,31,20
605,11193,6741,30,20
606,11225,6743,32,18
607,11226,6745,30,19
608,11211,6741,30,21
609,11211,6747,32,18
610,11257,6750,30,20
611,11247,6748,31,20
612,11229,6751,31,19
613,11230,6747,30,18
614,11227,6753,31,20
615,11263,6756,32,19
616,11284,6755,30,19
617,11263,6758,32,20
618,11247,6758,31,20
619,11260,6760,30,18
620,11273,6759,32,19
621,11265,6758,32,19
622,11231,6760,32,20
623,11207,6754,31,20
624,11194,6750,30,19
625,11186,6747,31,21
626,11152,6741,30,20
627,11103,6741,31,20
628,11083,6735,31,20
629,11095,6733,31,19
630,11055,6733,31,20
631,11031,6729,32,19
632,11006,6732,30,18
633,11016,6728,31,20
634,11024,6732,31,20
635,11030,6729,31,20
636,11007,6727,31,18
637,10980,6731,31,19
638,11002,6729,31,22
639,11019,6728,32,20
640,11015,6730,32,20
641,10990,6727,31,20
642,10988,6729,31,20
643,11012,6731,30,19
644,11038,6733,32,20
645,11026,6733,30,20
646,11008,6730,32,21
647,11012,6735,32,21
648,11050,6733,31,20
649,11034,6734,32,19
650,11017,6734,33,19
651,11016,6735,30,19
652,11028,6737,32,19
653,11050,6742,31,19
654,11051,6736,31,19
655,11015,6738,32,19
656,11006,6734,31,19
657,11020,6739,31,19
658,11048,6743,32,19
659,11038,6739,30,18
660,11010,6743,31,20
661,11016,6743,31,22
662,11042,6742,31,19
663,11051,6745,31,19
664,11037,6743,31,19
665,11015,6747,31,19
666,11036,6750,31,19
667,11063,6746,31,18
668,11053,6749,33,20
669,11044,6750,30,18
670,11045,6755,29,20
671,11071,6755,31,19
672,11094,6757,29,20
673,11090,6758,30,20
674,11067,6758,31,19
675,11074,6763,30,19
676,11099,6766,31,19
677,11117,6763,31,20
678,11103,6768,31,19
679,11092,6764,30,20
680,11095,6772,30,21
681,11124,6772,30,19
682,11134,6769,30,20
683,11111,6774,30,18
684,11105,6773,31,19
685,11114,6778,31,19
686,11141,6782,30,19
687,11133,6777,32,19
688,11126,6786,32,19
689,11141,6784,32,19
690,11150,6787,31,20
691,11183,6790,31,19
692,11167,6789,31,21
693,11147,6790,32,19
694,11158,6795,31,21
695,11185,6797,31,20
696,11196,6796,31,21
697,11181,6796,32,19
698,11158,6798,31,18
699,11173,6796,31,22
700,11178,6797,32,21
701,11159,6800,32,20
702,11116,6788,33,19
703,11078,6790,31,19
704,11069,6785,32,19
705,11037,6779,31,20
706,10992,6775,32,20
707,10969,6774,32,19
708,10966,6774,31,19
709,10966,6772,31,19
710,10966,6767,31,18
711,10927,6772,32,18
712,10914,6767,32,20
713,10920,6769,29,20
714,10936,6772,30,20
715,10934,6768,32,19
716,10909,6772,31,20
717,10901,6771,31,21
718,10914,6772,30,20
719,10927,6770,32,20
720,10910,6768,31,18
721,10890,6769,33,21
722,10897,6770,32,19
723,10918,6770,31,19
724,10915,6771,31,20
725,10908,6771,31,17
726,10908,6775,30,21
727,10926,6772,31,18
728,10947,6775,31,19
729,10944,6777,31,19
730,10925,6775,32,19
731,10911,6778,33,19
732,10926,6777,28,20
733,10947,6777,32,19
734,10938,6776,33,20
735,10912,6774,31,20
736,10911,6781,31,19
737,10931,6780,30,18
738,10942,6779,30,19
739,10923,6782,33,21
740,10915,6781,32,19
741,10918,6786,31,20
742,10941,6788,31,19
743,10923,6786,31,20
744,10917,6789,31,20
745,10928,6788,32,19
746,10943,6788,33,18
747,10971,6791,32,21
748,10960,6789,32,20
749,10942,6794,31,21
750,10943,6791,30,19
751,10969,6797,33,19
752,10990,6800,30,20
753,10987,6797,32,19
754,10963,6802,30,22
755,10976,6804,30,20
756,11004,6809,31,19
757,11018,6807,31,20
758,10996,6807,32,20
759,10987,6811,31,19
760,11005,6811,31,20
761,11027,6813,32,20
762,11007,6815,31,19
763,11012,6817,32,20
764,11023,6820,31,19
765,11051,6821,32,20
766,11061,6818,31,20
767,11042,6824,32,19
768,11032,6823,30,21
769,11043,6833,31,18
770,11073,6833,33,18
771,11083,6833,30,20
772,11071,6837,30,22
773,11062,6835,31,19
774,11071,6840,32,19
775,11109,6841,32,19
776,11116,6839,30,21
777,11097,6845,32,21
778,11100,6847,32,21
779,11113,6850,32,18
780,11151,6853,32,21
781,11125,6849,33,20
782,11124,6855,32,20
783,11154,6852,31,19
784,11166,6855,31,21
785,11181,6859,30,18
786,11172,6860,31,20
787,11161,6865,31,20
788,11178,6865,32,20
789,11200,6867,31,20
790,11208,6867,31,20
791,11193,6864,30,19
792,11174,6869,31,20
793,11175,6867,32,19
794,11174,6866,31,21
795,11142,6861,31,20
796,11080,6853,30,20
797,11042,6854,32,20
798,11039,6851,31,21
799,11025,6843,31,21
800,10955,6841,33,19
801,10938,6838,31,20
802,10936,6839,32,21
803,10944,6839,31,20
804,10934,6835,32,20
805,10898,6835,31,18
806,10889,6830,31,18
807,10899,6834,31,21
808,10918,6836,31,18
809,10909,6832,33,20
810,10886,6834,31,20
811,10882,6834,32,18
812,10904,6835,32,20
813,10914,6837,32,21
814,10898,6832,31,20
815,10883,6833,32,20
816,10891,6834,32,19
817,10922,6835,31,20
818,10939,6837,32,20
819,10897,6834,31,20
820,10907,6838,31,20
821,10928,6840,29,19
822,10936,6836,32,21
823,10923,6843,30,19
824,10904,6837,32,18
825,10896,6838,30,18
826,10910,6841,30,20
827,10925,6839,31,19
828,10907,6842,31,19
829,10892,6838,32,20
830,10888,6843,32,21
831,10913,6844,31,21
832,10923,6843,32,18
833,10912,6847,31,20
834,10894,6841,31,20
835,10902,6849,31,20
836,10939,6850,31,21
837,10940,6844,32,19
838,10907,6850,31,19
839,10930,6848,31,20
840,10937,6850,32,20
841,10956,6853,33,20
842,10954,6851,34,20
843,10940,6856,31,19
844,10945,6854,33,18
845,10964,6860,30,20
846,10990,6863,30,19
847,10979,6860,32,19
848,10962,6866,32,19
849,10976,6862,31,19
850,10999,6867,32,20
851,11017,6866,32,19
852,10985,6863,31,21
853,10979,6869,31,19
854,11004,6868,33,19
855,11028,6872,31,21
856,11025,6874,31,19
857,11005,6874,31,20
858,11025,6877,30,20
859,11043,6878,29,19
860,11048,6877,31,19
861,11034,6880,32,19
862,11026,6877,30,21
863,11029,6882,31,20
864,11059,6886,32,20
865,11058,6883,30,20
866,11042,6886,31,19
867,11039,6883,33,18
868,11056,6889,32,19
869,11085,6893,32,19
870,11091,6890,30,20
871,11063,6893,32,22
872,11069,6894,31,19
873,11090,6897,32,18
874,11119,6904,32,20
875,11112,6900,32,19
876,11103,6905,31,19
877,11128,6905,31,20
878,11140,6909,32,21
879,11143,6913,31,19
880,11129,6908,32,19
881,11116,6911,31,19
882,11122,6909,31,19
883,11131,6912,32,20
884,11118,6909,30,19
885,11062,6903,30,21
886,11027,6899,31,20
887,11013,6900,33,19
888,11002,6894,31,20
889,10963,6892,30,19
890,10913,6882,32,18
891,10892,6884,31,18
892,10905,6881,33,20
893,10906,6877,31,19
894,10880,6880,30,19
895,10871,6878,31,19
896,10883,6877,31,20
897,10895,6881,32,18
898,10882,6873,30,19
899,10860,6875,31,20
900,10849,6873,30,19
901,10859,6876,32,19
902,10881,6877,32,19
903,10877,6875,32,19
904,10858,6874,31,20
905,10863,6874,33,18
906,10881,6877,31,19
907,10904,6876,31,20
908,10885,6873,31,19
909,10873,6876,31,19
910,10877,6876,32,21
911,10902,6877,32,19
912,10916,6877,31,20
913,10883,6876,32,19
914,10888,6878,30,19
915,10898,6876,32,19
916,10897,6874,33,20
917,10875,6877,32,18
918,10872,6872,31,20
919,10863,6874,31,18
920,10884,6876,32,18
921,10898,6872,33,18
922,10877,6874,32,21
923,10865,6870,31,19
924,10863,6877,33,20
925,10893,6880,32,19
926,10905,6875,32,20
927,10883,6875,33,20
928,10875,6875,31,22
929,10888,6881,31,17
930,10924,6884,31,20
931,10926,6878,31,19
932,10912,6883,32,20
933,10930,6883,32,19
934,10951,6885,32,20
935,10954,6888,33,20
936,10941,6883,32,20
937,10924,6886,32,20
938,10938,6888,31,20
939,10959,6888,32,19
940,10979,6891,30,18
941,10958,6892,31,19
942,10947,6894,31,20
943,10973,6892,32,19
944,10992,6897,32,19
945,11002,6898,33,19
946,10981,6896,32,19
947,10973,6896,31,19
948,10995,6900,31,19
949,11009,6898,32,19
950,10999,6898,31,18
951,10990,6901,32,19
952,11018,6902,32,19
953,11041,6904,32,20
954,11043,6901,31,21
955,11031,6906,32,19
956,11030,6903,31,20
957,11040,6906,32,20
958,11075,6907,32,17
959,11092,6907,31,20
960,11081,6908,32,20
961,11084,6908,32,21
962,11106,6912,31,18
963,11151,6916,33,21
964,11159,6913,32,20
965,11145,6916,32,20
966,11160,6915,30,20
967,11188,6917,32,19
968,11218,6919,31,19
969,11203,6912,32,19
970,11181,6917,33,20
971,11201,6913,33,19
972,11186,6911,32,18
973,11162,6908,31,20
974,11117,6902,31,19
975,11081,6901,31,19
976,11071,6897,32,19
977,11063,6892,32,21
978,11042,6887,31,20
979,11003,6883,32,20
980,10984,6884,30,20
981,10997,6882,31,19
982,11013,6880,32,19
983,10996,6879,32,19
984,10973,6875,31,21
985,10974,6877,33,19
986,10997,6873,33,21
987,11006,6872,32,19
988,10992,6872,32,19
989,10986,6872,29,19
990,11016,6872,32,21
991,11020,6874,33,18
992,11009,6870,32,19
993,10993,6873,32,20
994,11008,6869,32,19
995,11026,6873,33,20
996,11052,6874,31,19
997,11043,6870,32,19
998,11019,6871,32,20
