VAL,PPG1,PPG2,BIOZ1,BIOZ2
0,29167,4227,23,24
1,29167,29427,29,16
2,29127,29473,26,16
3,29184,29448,27,16
4,29156,29455,26,15
5,29152,29458,26,14
6,29155,29405,27,16
7,29087,29441,28,15
8,29122,29418,26,15
9,29073,29385,26,13
10,29028,29417,26,14
11,29053,29365,27,17
12,28988,29398,27,15
13,29015,29372,28,15
14,28981,29359,27,15
15,28957,29401,27,17
16,28997,29355,28,15
17,28936,29368,26,14
18,28942,29374,27,15
19,28945,29345,28,15
20,28901,29387,27,15
21,28962,29352,26,15
22,28911,29368,25,15
23,28930,29372,26,16
24,28937,29339,26,16
25,28897,29382,26,15
26,28952,29364,26,16
27,28923,29342,26,15
28,28904,29387,28,14
29,28958,29335,28,15
30,28893,29372,27,15
31,28941,29352,28,15
32,28916,29344,28,12
33,28908,29378,26,14
34,28952,29331,28,14
35,28892,29371,26,17
36,28939,29353,27,15
37,28909,29344,26,15
38,28898,29376,26,14
39,28935,29337,27,16
40,28885,29367,27,15
41,28910,29358,27,14
42,28900,29345,26,16
43,28882,29379,27,16
44,28932,29350,27,14
45,28900,29350,26,14
46,28898,29373,27,15
47,28924,29337,28,17
48,28889,29384,27,15
49,28941,29346,25,15
50,28895,29369,27,16
51,28925,29377,25,14
52,28934,29348,27,15
53,28903,29387,27,14
54,28959,29361,26,14
55,28938,29374,25,16
56,28952,29378,26,14
57,28968,29343,25,14
58,28937,29396,27,15
59,29006,29362,27,15
60,28969,29357,27,15
61,28980,29390,26,15
62,29022,29346,28,15
63,28983,29369,27,14
64,29016,29373,26,16
65,29027,29354,26,15
66,29013,29392,26,16
67,29072,29354,27,16
68,29020,29388,27,15
69,29067,29370,27,15
70,29048,29356,26,16
71,29039,29407,28,16
72,29111,29360,27,14
73,29057,29378,26,15
74,29089,29377,26,14
75,29097,29359,28,15
76,29083,29404,26,16
77,29149,29369,26,16
78,29115,29373,26,16
79,29130,29381,26,15
80,29156,29358,27,14
81,29131,29383,27,15
82,29171,29378,25,15
83,29167,29378,27,14
84,29172,29406,27,15
85,29209,29368,27,15
86,29164,29405,26,15
87,29203,29377,27,15
88,29176,29377,27,15
89,29162,29390,27,15
90,29174,29341,25,14
91,29115,29373,27,15
92,29139,29345,28,15
93,29105,29333,29,14
94,29090,29347,26,15
95,29108,29303,27,14
96,29050,29318,25,15
97,29064,29307,27,15
98,29049,29285,27,15
99,29024,29326,25,14
100,29070,29290,28,15
101,29021,29294,26,15
102,29025,29307,26,15
103,29030,29279,25,14
104,29002,29333,28,15
105,29071,29290,26,15
106,29023,29308,27,13
107,29049,29303,26,16
108,29045,29278,27,14
109,29018,29324,26,14
110,29078,29288,26,14
111,29030,29298,28,14
112,29053,29310,28,15
113,29074,29273,26,16
114,29032,29323,26,16
115,29101,29292,26,13
116,29067,29292,29,16
117,29066,29314,27,15
118,29100,29280,27,15
119,29060,29299,26,16
120,29079,29291,26,16
121,29075,29272,29,15
122,29056,29307,27,14
123,29105,29262,28,15
124,29051,29294,26,14
125,29090,29284,27,15
126,29074,29270,28,15
127,29060,29308,25,15
128,29106,29264,29,15
129,29055,29293,29,16
130,29089,29297,27,15
131,29089,29276,26,15
132,29074,29328,27,16
133,29131,29278,27,14
134,29082,29303,26,15
135,29114,29307,27,15
136,29123,29294,27,14
137,29116,29318,27,14
138,29150,29313,27,16
139,29148,29311,26,16
140,29152,29329,27,16
141,29174,29299,26,15
142,29144,29334,28,15
143,29196,29315,28,16
144,29167,29326,27,16
145,29185,29350,28,15
146,29219,29306,26,15
147,29173,29351,27,13
148,29236,29335,26,16
149,29214,29338,27,15
150,29221,29363,27,16
151,29257,29334,29,17
152,29215,29371,27,16
153,29264,29352,27,15
154,29249,29344,26,16
155,29250,29369,26,16
156,29288,29351,27,14
157,29270,29363,25,15
158,29292,29367,27,17
159,29310,29354,27,14
160,29295,29397,28,16
161,29354,29364,26,15
162,29316,29389,28,15
163,29353,29386,28,14
164,29360,29363,27,14
165,29330,29406,26,14
166,29380,29371,27,16
167,29336,29383,26,16
168,29347,29387,28,15
169,29353,29343,28,16
170,29294,29376,27,16
171,29339,29346,27,14
172,29296,29342,28,16
173,29292,29359,28,13
174,29309,29321,27,16
175,29254,29329,27,16
176,29260,29324,27,15
177,29254,29316,27,15
178,29241,29344,27,15
179,29269,29307,27,15
180,29225,29340,26,15
181,29266,29333,27,16
182,29258,29322,26,15
183,29249,29361,26,15
184,29300,29317,27,14
185,29254,29341,27,17
186,29292,29339,27,15
187,29289,29318,28,13
188,29278,29359,27,16
189,29334,29319,26,17
190,29305,29340,27,15
191,29342,29345,27,15
192,29362,29317,27,17
193,29343,29348,28,15
194,29395,29324,28,15
195,29378,29331,26,14
196,29396,29327,27,16
197,29405,29294,26,15
198,29375,29337,27,14
199,29431,29308,27,15
200,29405,29311,28,15
201,29413,29323,28,15
202,29432,29294,28,16
203,29395,29327,27,15
204,29437,29320,27,17
205,29425,29310,27,15
206,29414,29344,28,14
207,29458,29299,27,15
208,29408,29345,26,15
209,29463,29330,26,14
210,29447,29325,28,15
211,29442,29364,27,15
212,29494,29340,27,15
213,29464,29358,27,15
214,29489,29354,29,14
215,29491,29343,28,17
216,29480,29386,26,15
217,29536,29353,27,15
218,29503,29378,27,16
219,29537,29377,27,14
220,29539,29363,27,16
221,29526,29403,26,16
222,29580,29376,27,16
223,29543,29380,29,17
224,29562,29400,28,15
225,29589,29374,27,15
226,29565,29418,25,16
227,29625,29388,27,15
228,29597,29398,27,16
229,29615,29420,26,15
230,29652,29387,27,15
231,29615,29414,27,14
232,29646,29410,28,14
233,29643,29408,28,16
234,29658,29436,28,15
235,29700,29395,26,15
236,29660,29433,27,15
237,29715,29419,27,16
238,29703,29411,26,16
239,29710,29454,27,15
240,29764,29411,28,15
241,29714,29445,26,16
242,29758,29440,27,16
243,29752,29416,28,15
244,29724,29451,27,15
245,29762,29414,28,15
246,29718,29423,27,16
247,29724,29429,27,16
248,29736,29385,28,15
249,29677,29410,28,15
250,29713,29379,29,16
251,29674,29381,29,16
252,29678,29385,27,16
253,29683,29345,28,15
254,29643,29389,27,15
255,29693,29358,28,16
256,29658,29359,28,16
257,29664,29386,26,15
258,29684,29354,27,15
259,29650,29392,26,13
260,29698,29375,27,15
261,29680,29380,26,15
262,29682,29395,27,16
263,29712,29352,28,16
264,29669,29391,29,15
265,29718,29399,26,16
266,29731,29364,28,15
267,29700,29411,28,15
268,29762,29379,27,15
269,29726,29399,27,17
270,29755,29395,28,14
271,29749,29378,27,14
272,29728,29413,27,16
273,29782,29378,26,15
274,29746,29400,27,16
275,29775,29391,28,17
276,29762,29381,27,16
277,29751,29419,27,15
278,29803,29379,28,16
279,29758,29396,28,16
280,29770,29396,29,16
281,29773,29374,28,15
282,29746,29421,27,16
283,29810,29388,28,16
284,29768,29384,28,14
285,29768,29417,27,16
286,29810,29383,25,15
287,29769,29416,27,16
288,29810,29396,26,15
289,29792,29409,27,15
290,29805,29432,27,15
291,29844,29407,27,16
292,29812,29431,28,15
293,29851,29420,29,13
294,29847,29413,28,13
295,29851,29461,27,15
296,29906,29417,28,15
297,29860,29442,28,14
298,29898,29436,26,14
299,29892,29433,27,15
300,29885,29478,28,15
301,29943,29437,28,16
302,29901,29443,28,16
303,29915,29480,29,16
304,29961,29441,27,15
305,29924,29485,28,16
306,29984,29455,27,16
307,29945,29464,29,15
308,29970,29479,27,13
309,29992,29453,27,15
310,29967,29499,28,15
311,30020,29482,28,14
312,30002,29489,28,17
313,30014,29507,26,16
314,30048,29468,26,16
315,30013,29508,27,16
316,30052,29498,29,15
317,30033,29501,25,16
318,30041,29539,27,15
319,30084,29509,27,15
320,30049,29543,29,15
321,30083,29552,28,15
322,30085,29527,28,14
323,30054,29583,26,13
324,30114,29542,26,15
325,30063,29566,29,14
326,30081,29552,28,18
327,30057,29542,28,15
328,30031,29569,27,15
329,30054,29534,28,15
330,30000,29539,27,15
331,30004,29530,27,16
332,29988,29496,27,14
333,29938,29539,27,15
334,29984,29506,27,15
335,29934,29511,27,16
336,29941,29510,28,16
337,29934,29485,27,17
338,29898,29521,26,16
339,29939,29505,28,15
340,29912,29498,27,16
341,29900,29533,26,15
342,29939,29497,27,16
343,29890,29537,26,16
344,29935,29514,28,15
345,29903,29523,27,15
346,29911,29543,27,15
347,29936,29515,27,15
348,29894,29544,29,15
349,29937,29535,29,16
350,29929,29522,27,16
351,29912,29561,26,14
352,29961,29523,28,15
353,29913,29547,28,15
354,29939,29547,27,15
355,29931,29537,27,13
356,29914,29571,27,16
357,29957,29545,28,17
358,29912,29545,28,14
359,29908,29568,28,15
360,29935,29531,28,14
361,29881,29579,27,14
362,29943,29547,28,16
363,29893,29564,28,15
364,29912,29570,27,15
365,29917,29539,28,16
366,29886,29591,28,16
367,29948,29568,26,15
368,29909,29576,29,17
369,29920,29594,26,16
370,29946,29556,29,15
371,29902,29598,27,15
372,29955,29581,28,16
373,29933,29589,26,16
374,29953,29618,27,16
375,29984,29576,28,15
376,29930,29605,27,15
377,29967,29611,28,15
378,29972,29595,27,15
379,29955,29641,28,17
380,30011,29600,27,15
381,29964,29631,28,16
382,30004,29631,27,15
383,30009,29619,27,15
384,29996,29659,29,16
385,30037,29632,27,15
386,30010,29655,27,15
387,30029,29654,27,16
388,30030,29639,26,16
389,30012,29683,27,17
390,30072,29652,27,16
391,30033,29667,27,15
392,30053,29678,28,13
393,30074,29651,26,16
394,30037,29689,29,15
395,30090,29677,28,16
396,30085,29681,28,14
397,30083,29710,29,14
398,30127,29666,29,15
399,30078,29705,28,17
400,30134,29688,28,14
401,30112,29692,28,16
402,30126,29719,28,17
403,30165,29682,28,14
404,30122,29719,27,14
405,30172,29706,27,14
406,30147,29707,28,16
407,30151,29745,28,14
408,30195,29713,26,15
409,30145,29726,27,15
410,30163,29724,26,16
411,30148,29703,27,16
412,30120,29718,28,15
413,30131,29692,28,15
414,30088,29691,28,16
415,30071,29698,28,17
416,30069,29659,28,16
417,30015,29694,28,15
418,30051,29658,27,15
419,29995,29661,28,15
420,29990,29667,27,15
421,30001,29629,28,16
422,29951,29677,29,15
423,30000,29652,30,16
424,29957,29659,28,15
425,29968,29680,27,15
426,29985,29643,27,17
427,29937,29678,27,16
428,29977,29667,29,15
429,29958,29660,28,15
430,29947,29686,27,15
431,29980,29651,26,15
432,29934,29670,27,15
433,29957,29664,27,15
434,29956,29655,27,16
435,29940,29686,27,16
436,29982,29643,27,17
437,29930,29668,26,15
438,29965,29664,29,17
439,29956,29646,27,15
440,29942,29680,27,17
441,29989,29649,28,15
442,29949,29666,28,15
443,29975,29666,28,15
444,29974,29635,26,15
445,29939,29679,27,15
446,29989,29649,28,16
447,29946,29665,26,15
448,29957,29678,28,16
449,29963,29646,29,16
450,29925,29679,29,14
451,29958,29668,27,14
452,29933,29673,29,16
453,29941,29693,28,15
454,29968,29659,27,15
455,29921,29708,27,14
456,29981,29691,28,17
457,29954,29690,28,17
458,29953,29713,28,15
459,29986,29677,27,16
460,29939,29708,27,14
461,29984,29710,28,14
462,29981,29698,28,15
463,29970,29732,26,14
464,30025,29697,27,16
465,29981,29719,27,14
466,30016,29714,28,15
467,30016,29693,28,16
468,30000,29728,28,16
469,30050,29706,28,16
470,30026,29725,27,16
471,30044,29736,27,16
472,30045,29710,28,16
473,30012,29762,28,16
474,30073,29733,28,16
475,30032,29747,28,16
476,30054,29761,27,16
477,30077,29728,29,17
478,30042,29765,29,16
479,30088,29741,28,16
480,30069,29754,28,14
481,30088,29777,27,16
482,30121,29734,28,15
483,30084,29771,27,16
484,30137,29762,27,15
485,30132,29763,29,17
486,30128,29791,27,15
487,30169,29762,28,15
488,30128,29791,27,13
489,30166,29783,27,14
490,30154,29779,29,15
491,30142,29810,28,17
492,30167,29771,29,16
493,30110,29789,28,15
494,30123,29770,27,14
495,30082,29739,28,16
496,30048,29779,27,15
497,30088,29724,27,15
498,30023,29731,28,17
499,30025,29719,27,18
500,30007,29686,27,15
501,29960,29718,27,15
502,30003,29687,27,16
503,29950,29694,28,16
504,29961,29719,29,16
505,29980,29671,25,17
506,29928,29698,26,15
507,29965,29680,29,16
508,29938,29691,28,17
509,29935,29713,27,16
510,29960,29672,26,16
511,29895,29703,29,16
512,29939,29683,28,17
513,29914,29681,27,16
514,29914,29709,29,16
515,29953,29657,29,15
516,29888,29697,29,15
517,29946,29683,27,17
518,29924,29673,26,16
519,29917,29710,28,16
520,29958,29663,27,17
521,29896,29688,27,16
522,29930,29699,27,15
523,29938,29658,28,16
524,29888,29698,27,15
525,29938,29662,27,16
526,29897,29680,28,15
527,29911,29685,27,15
528,29912,29647,28,16
529,29877,29699,27,16
530,29933,29660,28,15
531,29887,29673,27,17
532,29905,29684,27,15
533,29920,29646,28,16
534,29883,29692,28,15
535,29942,29665,29,16
536,29916,29665,27,14
537,29919,29697,29,14
538,29965,29655,27,17
539,29915,29691,28,17
540,29973,29672,28,17
541,29938,29655,28,16
542,29919,29712,28,17
543,29991,29674,28,15
544,29941,29702,27,16
545,29983,29692,27,17
546,29966,29683,29,17
547,29969,29722,26,15
548,30025,29676,28,17
549,29971,29705,29,18
550,30002,29710,26,16
551,30014,29681,28,16
552,29986,29725,27,16
553,30042,29694,27,15
554,30003,29713,27,17
555,30028,29714,28,15
556,30032,29693,27,16
557,30015,29737,27,15
558,30071,29710,30,16
559,30028,29702,28,18
560,30021,29747,28,16
561,30079,29706,28,16
562,30032,29741,29,16
563,30088,29726,27,15
564,30066,29734,27,16
565,30081,29756,28,15
566,30108,29715,27,15
567,30069,29761,28,15
568,30129,29747,28,15
569,30112,29744,28,15
570,30113,29766,28,16
571,30135,29721,29,17
572,30065,29746,27,16
573,30094,29727,28,16
574,30061,29710,28,15
575,30034,29734,28,14
576,30061,29682,28,16
577,29987,29680,27,15
578,29983,29705,29,16
579,30005,29643,27,15
580,29929,29682,28,15
581,29977,29642,30,16
582,29919,29661,28,15
583,29931,29666,28,16
584,29933,29630,29,14
585,29884,29679,27,16
586,29939,29648,27,17
587,29902,29654,27,14
588,29900,29670,28,14
589,29919,29630,28,15
590,29870,29673,27,16
591,29921,29642,27,16
592,29884,29655,28,17
593,29901,29670,28,15
594,29921,29634,30,17
595,29865,29670,28,16
596,29910,29668,27,15
597,29901,29639,29,15
598,29870,29685,29,14
599,29921,29643,28,14
600,29879,29673,28,15
601,29916,29657,28,17
602,29895,29651,27,16
603,29886,29682,27,16
604,29921,29635,30,16
605,29863,29659,27,15
606,29894,29659,28,15
607,29883,29634,27,15
608,29862,29672,29,16
609,29908,29639,27,15
610,29857,29653,27,17
611,29874,29650,27,15
612,29878,29618,27,16
613,29844,29665,28,15
614,29906,29648,27,16
615,29886,29644,28,15
616,29882,29678,29,15
617,29930,29623,28,16
618,29857,29672,28,16
619,29919,29649,27,18
620,29887,29649,27,17
621,29901,29678,27,16
622,29939,29631,27,17
623,29891,29675,28,15
624,29946,29653,27,17
625,29932,29656,27,15
626,29938,29684,27,16
627,29973,29648,29,16
628,29928,29674,27,15
629,29958,29666,28,16
630,29947,29663,29,15
631,29943,29696,28,14
632,29988,29654,28,15
633,29942,29680,28,17
634,29975,29687,28,17
635,29986,29659,28,17
636,29963,29709,30,15
637,30022,29677,29,15
638,29989,29690,28,16
639,30011,29694,27,16
640,30019,29664,29,16
641,29991,29709,28,15
642,30047,29679,29,15
643,30021,29691,28,18
644,30039,29705,28,16
645,30062,29672,29,16
646,30027,29719,28,16
647,30086,29694,27,18
648,30057,29707,28,16
649,30079,29727,28,16
650,30112,29687,28,17
651,30065,29711,28,15
652,30089,29704,29,16
653,30080,29680,27,16
654,30054,29706,27,15
655,30083,29645,29,16
656,30016,29666,27,16
657,30046,29642,28,14
658,30023,29622,27,16
659,29994,29656,28,13
660,30024,29608,28,15
661,29957,29620,28,17
662,29959,29618,27,16
663,29939,29596,29,16
664,29899,29643,29,15
665,29949,29597,29,15
666,29895,29626,29,14
667,29925,29625,27,17
668,29915,29601,29,17
669,29884,29633,28,16
670,29927,29626,27,16
671,29920,29619,28,16
672,29914,29644,27,16
673,29941,29598,27,15
674,29895,29641,29,15
675,29945,29614,28,16
676,29922,29621,27,15
677,29924,29650,29,15
678,29955,29609,28,15
679,29902,29649,27,15
680,29941,29630,29,16
681,29917,29631,28,16
682,29921,29655,28,15
683,29945,29613,28,16
684,29886,29646,28,15
685,29918,29636,27,16
686,29900,29627,27,16
687,29900,29649,27,17
688,29919,29616,28,17
689,29878,29621,27,17
690,29879,29633,28,16
691,29889,29609,27,16
692,29862,29647,29,15
693,29901,29611,28,15
694,29851,29634,28,16
695,29874,29637,28,16
696,29878,29609,29,17
697,29841,29653,27,16
698,29906,29628,28,16
699,29868,29641,27,17
700,29879,29652,27,15
701,29900,29624,27,15
702,29872,29662,27,16
703,29920,29647,29,16
704,29901,29648,29,17
705,29903,29673,29,15
706,29940,29646,27,16
707,29924,29662,27,15
708,29945,29660,27,16
709,29944,29652,28,15
710,29945,29685,28,17
711,29987,29643,28,16
712,29929,29678,26,16
713,29970,29673,27,17
714,29964,29667,27,15
715,29962,29696,28,17
716,30003,29655,29,16
717,29961,29687,30,15
718,30009,29683,27,15
719,30004,29662,28,16
720,29990,29701,26,17
721,30046,29669,27,15
722,30011,29691,30,17
723,30041,29697,28,15
724,30057,29668,28,15
725,30034,29698,27,15
726,30071,29686,28,15
727,30060,29690,29,16
728,30068,29710,27,16
729,30086,29672,28,15
730,30043,29711,27,15
731,30076,29681,27,16
732,30034,29680,27,15
733,30024,29689,27,16
734,30034,29638,26,16
735,29972,29660,28,15
736,30001,29636,29,16
737,29961,29636,29,15
738,29950,29654,30,14
739,29966,29606,29,16
740,29897,29636,29,15
741,29924,29624,28,15
742,29894,29614,27,14
743,29873,29646,28,15
744,29909,29616,28,16
745,29865,29628,28,15
746,29873,29633,27,17
747,29878,29614,28,15
748,29856,29655,28,17
749,29912,29616,28,16
750,29869,29637,29,16
751,29903,29625,28,18
752,29895,29601,29,17
753,29864,29649,28,15
754,29924,29618,27,15
755,29885,29631,29,17
756,29903,29648,26,15
757,29924,29615,26,16
758,29878,29653,27,16
759,29926,29632,28,16
760,29889,29639,29,15
761,29887,29660,28,17
762,29914,29632,27,15
763,29865,29648,28,15
764,29888,29636,29,17
765,29867,29633,30,16
766,29867,29659,29,16
767,29894,29617,27,16
768,29848,29646,26,14
769,29873,29633,28,15
770,29857,29626,27,16
771,29855,29669,27,15
772,29902,29626,28,16
773,29850,29649,28,15
774,29882,29644,29,17
775,29873,29628,28,16
776,29850,29675,30,17
777,29903,29650,28,15
778,29874,29665,28,15
779,29885,29667,29,17
780,29884,29646,29,16
781,29863,29693,28,16
782,29916,29675,28,17
783,29892,29680,29,16
784,29902,29693,28,16
785,29919,29664,27,14
786,29881,29708,27,17
787,29942,29685,28,16
788,29918,29690,28,18
789,29928,29708,28,17
790,29953,29675,27,17
791,29922,29717,29,15
792,29970,29702,30,15
793,29950,29701,27,15
794,29957,29725,26,15
795,29986,29683,26,17
796,29945,29710,29,14
797,29980,29713,28,16
798,29984,29691,27,16
799,29960,29741,27,16
800,30024,29710,27,16
801,29986,29727,29,16
802,30006,29735,29,16
803,30020,29721,28,15
804,30001,29766,28,15
805,30050,29732,27,17
806,29999,29751,28,17
807,30012,29748,29,15
808,30001,29709,29,18
809,29952,29753,28,16
810,29989,29716,26,15
811,29939,29717,29,16
812,29928,29717,28,16
813,29917,29672,29,15
814,29857,29708,27,16
815,29887,29673,29,16
816,29834,29660,29,17
817,29809,29708,29,17
818,29850,29656,28,17
819,29776,29683,29,15
820,29802,29680,28,16
821,29787,29672,30,17
822,29770,29698,28,16
823,29789,29661,28,16
824,29733,29696,29,14
825,29775,29682,29,14
826,29746,29678,28,16
827,29738,29710,27,15
828,29776,29667,28,16
829,29725,29690,28,16
830,29758,29687,28,16
831,29751,29674,30,15
832,29736,29710,27,15
833,29783,29682,29,15
834,29723,29693,28,15
835,29732,29714,28,16
836,29756,29668,27,15
837,29695,29708,28,17
838,29746,29680,28,15
839,29700,29691,28,16
840,29712,29698,28,16
841,29719,29673,28,16
842,29679,29705,27,16
843,29722,29681,27,16
844,29686,29696,28,16
845,29695,29714,28,15
846,29713,29663,28,17
847,29653,29703,29,16
848,29698,29694,28,15
849,29677,29694,28,17
850,29673,29724,27,17
851,29718,29687,27,16
852,29674,29718,27,16
853,29711,29723,29,16
854,29717,29693,28,16
855,29683,29738,28,17
856,29739,29702,29,17
857,29690,29729,28,16
858,29717,29733,28,16
859,29724,29714,28,15
860,29701,29761,28,16
861,29761,29727,29,17
862,29724,29750,26,15
863,29751,29753,28,16
864,29755,29728,28,15
865,29724,29776,27,17
866,29780,29750,29,17
867,29746,29764,27,16
868,29759,29778,28,16
869,29779,29750,28,16
870,29748,29785,29,17
871,29797,29768,29,16
872,29771,29761,29,15
873,29764,29806,28,16
874,29819,29761,28,15
875,29759,29803,27,16
876,29808,29786,28,16
877,29790,29800,27,16
878,29813,29828,28,15
879,29850,29780,27,16
880,29805,29822,29,14
881,29854,29808,29,17
882,29839,29798,28,15
883,29830,29844,29,16
884,29890,29805,28,15
885,29837,29836,29,15
886,29868,29828,27,15
887,29860,29820,27,15
888,29846,29856,28,15
889,29881,29809,30,15
890,29820,29812,27,15
891,29804,29819,29,15
892,29810,29770,29,16
893,29730,29806,27,16
894,29769,29768,28,16
895,29703,29773,29,15
896,29711,29767,30,16
897,29685,29722,29,16
898,29620,29767,28,17
899,29664,29731,30,16
900,29617,29739,30,16
901,29612,29754,29,16
902,29625,29722,28,16
903,29578,29751,29,16
904,29614,29731,28,18
905,29577,29736,28,16
906,29576,29750,28,16
907,29589,29716,29,15
908,29540,29732,29,15
909,29557,29744,29,16
910,29566,29705,28,17
911,29521,29758,28,14
912,29579,29705,29,17
913,29516,29736,29,15
914,29549,29728,28,15
915,29533,29711,29,16
916,29510,29751,29,15
917,29558,29717,28,16
918,29509,29738,29,15
919,29527,29736,29,15
920,29524,29711,29,16
921,29493,29752,29,16
922,29539,29722,28,16
923,29500,29738,28,16
924,29510,29746,28,16
925,29515,29710,28,15
926,29473,29751,28,16
927,29519,29739,28,15
928,29502,29725,27,17
929,29483,29751,29,16
930,29518,29718,27,17
931,29474,29745,29,17
932,29515,29729,29,16
933,29484,29734,29,15
934,29494,29758,28,15
935,29528,29716,28,16
936,29478,29757,30,16
937,29521,29743,29,16
938,29507,29749,28,16
939,29509,29780,27,17
940,29553,29738,28,14
941,29499,29766,27,15
942,29533,29753,29,17
943,29529,29747,29,15
944,29514,29789,30,17
945,29570,29770,29,18
946,29540,29771,28,17
947,29542,29786,29,16
948,29564,29754,29,15
949,29525,29797,28,16
950,29589,29768,27,15
951,29546,29789,28,16
952,29575,29792,29,16
953,29580,29763,28,16
954,29553,29804,29,16
955,29612,29787,29,16
956,29582,29792,28,18
957,29597,29814,28,16
958,29622,29782,28,15
959,29592,29817,29,16
960,29638,29795,28,16
961,29613,29803,29,16
962,29629,29838,28,14
963,29672,29788,29,15
964,29620,29815,27,16
965,29657,29812,29,18
966,29660,29803,29,16
967,29655,29842,30,16
968,29709,29805,28,15
969,29661,29835,29,17
970,29696,29832,27,14
971,29695,29815,28,16
972,29676,29857,27,17
973,29726,29813,29,17
974,29662,29832,27,14
975,29673,29811,28,17
976,29651,29779,29,17
977,29599,29808,27,16
978,29630,29765,28,16
979,29572,29767,29,17
980,29557,29768,29,16
981,29555,29725,28,17
982,29493,29742,28,16
983,29499,29738,29,15
984,29483,29728,29,16
985,29468,29746,29,16
986,29480,29708,29,15
987,29423,29748,29,16
988,29475,29716,27,16
989,29425,29725,28,15
990,29430,29745,29,16
991,29453,29708,30,16
992,29402,29740,28,16
993,29445,29714,27,16
994,29411,29714,27,17
995,29412,29740,28,16
996,29445,29693,29,16
997,29390,29715,29,17
998,29422,29710,28,15
999,29417,29689,29,13
,,,,
ADC Sampling complete! Collected 1000 samples, printed 1000 samples in 8.771 seconds,,,
,,,,
,,,,
*******************************************************,,,,
Please enter a number to select an option,,,,
1. Display information,,,,
2. Settings,,,,
3. Sample ADC,,,,
