0,18177,26355,40,14
1,18160,26393,40,15
2,18186,26363,38,16
3,18173,26362,38,14
4,18183,26371,40,15
5,18192,26322,38,16
6,18172,26352,40,15
7,18188,26328,39,16
8,18180,26339,39,16
9,18184,26370,38,14
10,18203,26336,39,15
11,18189,26376,40,14
12,18208,26350,38,14
13,18206,26348,38,16
14,18210,26372,38,15
15,18226,26342,39,16
16,18208,26369,36,15
17,18230,26350,40,15
18,18214,26362,39,15
19,18219,26397,38,16
20,18236,26364,38,14
21,18221,26391,39,15
22,18244,26388,40,14
23,18237,26367,39,15
24,18233,26402,38,16
25,18256,26383,39,15
26,18246,26398,40,15
27,18262,26399,39,15
28,18270,26380,39,15
29,18260,26420,38,15
30,18284,26394,38,13
31,18275,26410,38,14
32,18286,26410,37,16
33,18287,26382,38,15
34,18264,26417,39,17
35,18276,26373,39,16
36,18249,26365,39,14
37,18242,26360,38,15
38,18233,26282,38,16
39,18185,26292,39,14
40,18188,26230,40,17
41,18151,26201,38,16
42,18134,26185,39,17
43,18126,26133,38,16
44,18096,26125,39,16
45,18088,26078,39,15
46,18069,26060,39,16
47,18058,26076,38,16
48,18063,26017,40,15
49,18035,26036,39,16
50,18044,26013,38,15
51,18031,25993,38,15
52,18019,26026,39,15
53,18036,25970,41,14
54,18006,25988,40,17
55,18018,25977,38,16
56,18008,25953,39,16
57,18000,25982,40,15
58,18012,25947,37,16
59,17991,25947,39,15
60,17996,25957,38,15
61,17994,25919,40,15
62,17976,25949,39,13
63,18001,25920,40,15
64,17984,25925,38,17
65,17984,25928,37,15
66,17990,25877,39,15
67,17966,25899,39,15
68,17977,25870,39,16
69,17961,25872,39,14
70,17964,25882,41,14
71,17969,25842,40,14
72,17945,25873,39,15
73,17961,25854,39,15
74,17949,25826,38,14
75,17939,25850,38,14
76,17956,25796,39,15
77,17931,25820,40,15
78,17951,25808,38,14
79,17944,25798,38,16
80,17939,25831,38,15
81,17953,25799,38,16
82,17931,25809,40,16
83,17941,25812,38,15
84,17944,25794,39,15
85,17944,25841,37,15
86,17974,25802,38,15
87,17959,25828,39,15
88,17980,25814,40,14
89,17978,25804,37,14
90,17970,25842,39,13
91,17992,25798,39,15
92,17971,25835,39,17
93,17982,25844,38,14
94,17989,25796,39,14
95,17975,25854,38,15
96,18008,25822,39,15
97,17991,25845,41,16
98,18006,25851,39,15
99,18014,25815,39,15
100,18002,25842,39,15
101,18024,25827,39,16
102,18022,25833,39,16
103,18028,25863,38,15
104,18045,25821,39,16
105,18025,25859,39,16
106,18048,25842,39,15
107,18038,25851,39,15
108,18051,25882,37,15
109,18068,25819,39,15
110,18039,25837,37,15
111,18053,25809,38,14
112,18031,25772,39,15
113,18012,25779,37,14
114,18010,25706,40,15
115,17967,25711,39,15
116,17963,25665,39,15
117,17943,25615,39,15
118,17917,25607,38,17
119,17912,25550,37,15
120,17886,25533,38,16
121,17876,25524,39,14
122,17875,25484,40,16
123,17853,25510,38,16
124,17869,25449,38,15
125,17849,25458,38,15
126,17855,25464,39,16
127,17861,25418,38,15
128,17835,25439,40,16
129,17853,25398,38,16
130,17834,25400,39,17
131,17832,25413,40,14
132,17839,25367,40,15
133,17818,25400,39,15
134,17837,25379,39,14
135,17831,25370,38,16
136,17832,25386,39,15
137,17840,25344,40,15
138,17819,25362,39,15
139,17816,25352,39,15
140,17811,25337,39,16
141,17795,25368,39,16
142,17811,25317,39,13
143,17778,25344,41,14
144,17787,25333,40,16
145,17777,25299,40,15
146,17761,25338,41,14
147,17784,25280,39,16
148,17761,25298,38,14
149,17777,25289,39,16
150,17768,25264,39,15
151,17757,25297,40,17
152,17780,25251,37,16
153,17762,25263,39,16
154,17769,25278,40,14
155,17781,25244,40,15
156,17764,25286,38,15
157,17788,25275,40,15
158,17784,25276,37,15
159,17787,25307,40,14
160,17808,25266,38,15
161,17784,25312,39,16
162,17812,25296,39,13
163,17803,25306,39,16
164,17812,25330,39,17
165,17829,25290,39,15
166,17811,25325,38,14
167,17843,25300,38,15
168,17839,25308,39,15
169,17845,25339,38,15
170,17864,25296,38,15
171,17841,25331,38,15
172,17863,25326,39,16
173,17855,25321,38,15
174,17860,25353,39,15
175,17875,25330,39,16
176,17869,25349,39,14
177,17879,25355,39,18
178,17882,25335,38,15
179,17876,25368,39,16
180,17893,25318,39,14
181,17858,25333,38,15
182,17860,25316,38,14
183,17842,25265,38,14
184,17814,25276,39,14
185,17816,25217,40,17
186,17779,25196,39,14
187,17767,25175,41,15
188,17754,25122,38,15
189,17726,25123,37,14
190,17734,25074,39,16
191,17708,25048,39,16
192,17695,25049,39,16
193,17700,25003,39,15
194,17680,25008,39,14
195,17683,24987,39,16
196,17676,24974,39,15
197,17664,25000,38,14
198,17675,24954,39,16
199,17645,24986,38,14
200,17662,24959,38,15
201,17643,24951,39,14
202,17649,24961,39,16
203,17665,24925,38,14
204,17648,24947,37,16
205,17664,24938,40,14
206,17654,24922,39,15
207,17647,24956,40,15
208,17664,24909,38,16
209,17633,24941,39,15
210,17645,24928,39,15
211,17638,24901,39,15
212,17625,24921,38,16
213,17641,24893,38,15
214,17618,24893,39,15
215,17616,24896,37,17
216,17618,24859,38,13
217,17590,24897,37,16
218,17618,24867,38,16
219,17599,24872,37,16
220,17596,24886,40,15
221,17606,24846,40,15
222,17584,24879,38,16
223,17610,24868,39,16
224,17601,24872,38,14
225,17604,24882,38,14
226,17621,24853,41,15
227,17599,24891,39,16
228,17619,24874,39,15
229,17610,24864,39,15
230,17612,24922,41,13
231,17634,24899,40,16
232,17619,24919,40,15
233,17633,24907,37,14
234,17631,24909,38,15
235,17628,24950,39,15
236,17656,24914,38,14
237,17641,24940,39,13
238,17655,24939,39,16
239,17659,24928,39,14
240,17649,24977,41,15
241,17676,24945,38,15
242,17662,24963,39,15
243,17672,24967,39,15
244,17672,24959,39,16
245,17660,25007,38,15
246,17697,24980,40,15
247,17677,24994,38,16
248,17686,25014,39,14
249,17695,24997,39,15
250,17686,25022,38,14
251,17694,25030,38,15
252,17691,25033,38,16
253,17691,25048,39,15
254,17694,24994,39,15
255,17654,25020,37,15
256,17667,24974,38,15
257,17639,24946,39,14
258,17616,24937,39,16
259,17605,24853,38,15
260,17558,24862,38,15
261,17562,24802,39,16
262,17529,24761,39,14
263,17509,24765,38,14
264,17512,24701,37,14
265,17479,24703,40,17
266,17474,24683,38,16
267,17457,24656,38,15
268,17443,24674,38,16
269,17456,24630,40,14
270,17430,24626,40,13
271,17424,24626,39,15
272,17426,24592,39,14
273,17405,24624,39,16
274,17426,24579,38,17
275,17399,24592,41,14
276,17402,24592,38,14
277,17403,24560,39,14
278,17389,24591,38,14
279,17409,24568,38,15
280,17391,24562,39,14
281,17392,24580,38,14
282,17405,24527,40,15
283,17372,24565,36,15
284,17391,24541,38,16
285,17378,24538,38,16
286,17374,24550,39,15
287,17378,24496,39,14
288,17350,24516,40,16
289,17359,24505,39,15
290,17355,24479,40,15
291,17346,24519,38,14
292,17363,24470,39,15
293,17337,24493,39,14
294,17352,24484,37,14
295,17341,24464,37,14
296,17331,24499,40,15
297,17348,24464,39,15
298,17330,24494,38,14
299,17340,24483,37,16
300,17341,24470,39,15
301,17339,24518,39,14
302,17367,24492,40,16
303,17343,24509,40,16
304,17353,24528,39,16
305,17364,24497,41,15
306,17347,24547,38,15
307,17379,24528,40,16
308,17366,24544,39,15
309,17372,24569,37,16
310,17389,24531,39,15
311,17365,24576,38,14
312,17392,24561,40,16
313,17380,24578,38,15
314,17384,24601,39,15
315,17395,24576,39,15
316,17376,24613,40,16
317,17399,24606,39,15
318,17392,24605,40,16
319,17394,24641,39,15
320,17420,24606,39,14
321,17404,24639,39,16
322,17429,24629,40,16
323,17417,24631,39,16
324,17418,24657,39,15
325,17439,24642,39,15
326,17427,24669,39,15
327,17438,24687,39,16
328,17449,24662,38,14
329,17444,24718,39,16
330,17468,24686,39,15
331,17445,24730,38,15
332,17464,24724,38,17
333,17450,24679,38,14
334,17425,24715,38,17
335,17434,24657,39,16
336,17399,24636,38,14
337,17393,24604,40,15
338,17376,24529,39,17
339,17334,24542,39,14
340,17339,24462,39,14
341,17298,24441,39,14
342,17281,24426,39,15
343,17278,24352,39,15
344,17239,24355,39,15
345,17245,24321,37,15
346,17225,24289,40,16
347,17208,24302,39,13
348,17224,24244,40,15
349,17188,24264,39,14
350,17198,24245,39,15
351,17184,24238,38,14
352,17170,24255,38,15
353,17180,24189,38,15
354,17151,24219,38,15
355,17169,24187,39,15
356,17153,24162,38,16
357,17140,24186,38,15
358,17158,24142,39,15
359,17130,24159,38,14
360,17140,24141,37,16
361,17134,24126,38,14
362,17128,24158,37,16
363,17144,24126,37,15
364,17127,24124,38,15
365,17124,24139,39,15
366,17131,24088,40,16
367,17104,24126,39,16
368,17123,24087,40,15
369,17102,24080,38,15
370,17100,24081,38,15
371,17102,24057,39,16
372,17086,24078,40,15
373,17102,24057,39,14
374,17094,24059,39,16
375,17093,24079,39,15
376,17102,24032,39,15
377,17080,24073,39,16
378,17104,24062,38,16
379,17095,24060,39,15
380,17093,24088,38,14
381,17114,24046,38,15
382,17093,24071,39,15
383,17107,24082,39,15
384,17119,24068,38,15
385,17110,24113,38,14
386,17136,24068,38,15
387,17114,24105,39,14
388,17136,24100,40,14
389,17136,24089,40,15
390,17128,24134,39,14
391,17155,24097,38,15
392,17134,24130,38,15
393,17151,24132,38,14
394,17156,24124,36,14
395,17150,24173,40,16
396,17177,24135,39,14
397,17155,24155,40,16
398,17168,24173,37,15
399,17179,24150,39,15
400,17170,24202,39,15
401,17198,24183,39,16
402,17189,24188,38,15
403,17189,24223,39,14
404,17212,24196,38,14
405,17197,24244,39,14
406,17227,24222,39,14
407,17215,24230,38,14
408,17223,24250,39,15
409,17236,24217,37,15
410,17224,24273,38,15
411,17254,24264,37,15
412,17245,24271,38,13
413,17261,24304,38,15
414,17278,24277,41,16
415,17268,24303,39,15
416,17287,24289,39,16
417,17274,24276,38,15
418,17259,24295,40,15
419,17265,24241,40,15
420,17226,24223,38,15
421,17219,24212,40,14
422,17215,24136,40,15
423,17175,24149,39,14
424,17186,24059,38,16
425,17149,24046,38,16
426,17146,24014,40,15
427,17131,23954,39,15
428,17100,23971,40,15
429,17111,23921,38,16
430,17082,23919,39,15
431,17081,23902,39,15
432,17081,23867,39,15
433,17061,23884,39,15
434,17077,23844,40,14
435,17056,23856,39,13
436,17061,23867,39,15
437,17074,23818,39,14
438,17054,23844,40,17
439,17069,23808,40,14
440,17065,23787,39,14
441,17057,23822,38,15
442,17081,23777,37,15
443,17059,23786,40,15
444,17071,23766,37,14
445,17060,23767,39,16
446,17054,23793,38,16
447,17072,23739,39,16
448,17052,23768,39,12
449,17065,23750,38,15
450,17058,23732,39,14
451,17052,23765,40,15
452,17072,23707,38,14
453,17046,23723,38,15
454,17058,23717,40,14
455,17061,23693,39,15
456,17049,23733,40,14
457,17075,23692,40,15
458,17057,23688,40,13
459,17058,23723,39,14
460,17080,23677,39,14
461,17062,23722,38,15
462,17088,23698,39,15
463,17078,23710,39,16
464,17087,23725,39,14
465,17095,23705,41,16
466,17092,23738,39,16
467,17117,23714,38,15
468,17110,23740,38,15
469,17125,23767,40,15
470,17144,23728,37,14
471,17129,23770,39,14
472,17160,23758,40,14
473,17156,23774,39,15
474,17163,23800,39,13
475,17183,23772,39,14
476,17170,23800,37,14
477,17189,23815,39,16
478,17199,23783,38,13
479,17188,23835,37,15
480,17220,23806,39,15
481,17204,23841,38,15
482,17222,23853,38,17
483,17235,23838,39,15
484,17231,23881,38,14
485,17263,23850,39,16
486,17249,23882,39,15
487,17269,23873,39,16
488,17274,23853,39,17
489,17267,23907,38,15
490,17306,23880,39,16
491,17297,23895,40,15
492,17308,23914,39,15
493,17320,23896,39,15
494,17314,23954,39,15
495,17348,23920,39,15
496,17337,23936,39,15
497,17344,23995,38,16
498,17372,23970,37,14
499,17354,24016,39,14
500,17384,23995,37,15
501,17369,23994,39,15
502,17375,24018,39,16
503,17391,23968,40,15
504,17364,23992,39,14
505,17374,23948,38,15
506,17351,23919,41,17
507,17341,23921,41,15
508,17349,23845,40,15
509,17312,23855,39,15
510,17320,23817,39,16
511,17301,23774,39,15
512,17285,23801,39,15
513,17307,23750,38,15
514,17273,23763,40,15
515,17282,23755,38,16
516,17290,23713,39,15
517,17267,23754,38,14
518,17293,23729,38,15
519,17277,23732,38,15
520,17288,23733,39,15
521,17292,23710,38,15
522,17274,23750,39,15
523,17298,23741,38,16
524,17287,23753,39,14
525,17291,23778,38,14
526,17303,23748,41,15
527,17294,23794,38,14
528,17324,23764,39,16
529,17304,23780,40,15
530,17317,23801,39,15
531,17332,23764,39,14
532,17304,23805,39,16
533,17323,23790,37,15
534,17316,23775,39,15
535,17311,23822,40,15
536,17343,23779,38,16
537,17324,23809,39,15
538,17340,23792,38,14
539,17333,23795,38,14
540,17331,23834,38,15
541,17354,23785,38,15
542,17327,23824,40,14
543,17348,23816,39,16
544,17348,23808,38,15
545,17340,23859,38,15
546,17365,23828,39,16
547,17353,23862,39,14
548,17367,23875,39,15
549,17375,23865,39,14
550,17371,23921,39,16
551,17406,23903,39,14
552,17396,23929,38,15
553,17410,23962,39,16
554,17438,23935,39,16
555,17427,23972,40,15
556,17447,23957,40,16
557,17434,23979,39,16
558,17448,24022,38,14
559,17468,24006,38,15
