VAL,PPG1,PPG2,BIOZ1,BIOZ2
0,10750,5083,37,64
1,10694,5080,37,42
2,10667,5081,36,29
3,10686,5080,37,26
4,10678,5079,37,26
5,10676,5079,37,24
6,10696,5078,37,20
7,10681,5080,38,21
8,10711,5080,37,21
9,10710,5079,38,21
10,10713,5082,35,21
11,10744,5081,37,22
12,10738,5079,36,22
13,10748,5080,38,20
14,10762,5081,36,25
15,10751,5082,36,22
16,10789,5082,37,25
17,10767,5082,35,23
18,10789,5083,36,21
19,10797,5082,36,20
20,10785,5082,36,24
21,10810,5081,37,24
22,10789,5083,36,23
23,10799,5083,36,21
24,10801,5081,37,22
25,10783,5082,36,25
26,10818,5082,37,24
27,10795,5083,38,27
28,10807,5082,37,26
29,10817,5081,36,26
30,10807,5083,37,25
31,10829,5082,36,20
32,10826,5082,37,22
33,10831,5083,37,18
34,10852,5082,37,20
35,10835,5081,37,24
36,10861,5084,37,24
37,10865,5081,36,24
38,10872,5084,35,21
39,10902,5084,37,20
40,10891,5083,37,20
41,10919,5085,38,19
42,10921,5084,38,22
43,10926,5086,37,19
44,10963,5086,38,22
45,10955,5086,37,22
46,10982,5085,36,23
47,10991,5086,37,20
48,10986,5083,36,17
49,11008,5083,37,17
50,11009,5085,37,21
51,11009,5085,37,17
52,11018,5085,38,23
53,10991,5084,36,18
54,11002,5084,38,19
55,10963,5089,36,22
56,10947,5085,38,22
57,10935,5085,37,23
58,10894,5083,38,22
59,10893,5085,36,20
60,10861,5087,35,18
61,10841,5086,38,22
62,10840,5084,36,24
63,10804,5086,38,26
64,10826,5085,37,23
65,10807,5085,38,25
66,10803,5085,37,25
67,10822,5084,37,22
68,10805,5087,38,21
69,10824,5083,37,18
70,10826,5085,37,21
71,10827,5087,38,23
72,10859,5086,37,19
73,10844,5085,37,22
74,10867,5086,38,20
75,10867,5085,37,21
76,10862,5085,37,18
77,10898,5086,35,19
78,10878,5087,36,20
79,10901,5088,37,21
80,10910,5084,37,23
81,10893,5087,37,22
82,10914,5086,38,19
83,10895,5086,36,22
84,10908,5086,36,18
85,10914,5084,36,21
86,10895,5085,38,23
87,10916,5086,37,21
88,10909,5085,36,24
89,10903,5086,37,24
90,10920,5085,36,23
91,10899,5087,38,24
92,10927,5085,37,26
93,10914,5087,35,24
94,10921,5088,37,21
95,10944,5084,36,21
96,10924,5085,36,22
97,10944,5086,34,21
98,10942,5087,37,22
99,10945,5087,37,25
100,10974,5086,37,23
101,10949,5088,36,26
102,10975,5086,38,23
103,10976,5088,38,22
104,10976,5086,38,25
105,11000,5088,37,23
106,11002,5086,37,25
107,11009,5088,36,22
108,11022,5088,36,22
109,11012,5088,36,21
110,11040,5086,36,21
111,11016,5088,37,22
112,11024,5088,36,25
113,11017,5088,37,22
114,10986,5087,36,26
115,10987,5087,38,27
116,10949,5087,38,25
117,10926,5088,37,24
118,10926,5088,37,19
119,10880,5086,35,18
120,10879,5085,35,19
121,10843,5086,36,21
122,10833,5087,36,23
123,10838,5088,36,24
124,10805,5086,35,24
125,10811,5086,38,21
126,10814,5085,35,23
127,10797,5087,37,24
128,10824,5085,36,23
129,10804,5087,37,26
130,10824,5087,35,23
131,10824,5084,36,18
132,10823,5086,37,20
133,10853,5088,36,20
134,10840,5086,37,23
135,10858,5086,36,26
136,10874,5087,36,25
137,10861,5087,37,25
138,10892,5086,35,24
139,10876,5085,37,21
140,10890,5089,36,22
141,10895,5085,36,22
142,10874,5086,36,22
143,10889,5087,35,22
144,10878,5085,38,24
145,10872,5087,38,23
146,10891,5087,36,22
147,10866,5086,36,22
148,10890,5088,37,24
149,10875,5085,37,26
150,10878,5086,37,24
151,10897,5085,37,23
152,10877,5088,37,21
153,10898,5087,36,19
154,10890,5086,36,22
155,10894,5087,36,25
156,10916,5086,36,25
157,10899,5087,36,26
158,10923,5087,38,23
159,10921,5088,36,22
160,10929,5088,37,21
161,10955,5087,37,22
162,10948,5087,37,24
163,10955,5089,36,21
164,10975,5087,40,20
165,10961,5088,36,23
166,10997,5088,37,18
167,10975,5084,37,21
168,10986,5089,37,21
169,10990,5086,36,19
170,10965,5088,37,19
171,10977,5088,37,18
172,10938,5088,36,21
173,10933,5088,36,20
174,10919,5086,36,19
175,10864,5087,36,19
176,10861,5087,37,21
177,10819,5086,37,24
178,10803,5087,38,23
179,10798,5088,37,26
180,10758,5086,37,23
181,10752,5085,37,23
182,10747,5084,36,23
183,10721,5085,36,20
184,10738,5086,36,25
185,10719,5084,38,25
186,10742,5086,36,26
187,10732,5086,36,25
188,10729,5086,37,23
189,10756,5084,36,21
190,10738,5085,36,23
191,10765,5086,37,21
192,10764,5085,36,22
193,10766,5085,36,23
194,10792,5085,36,24
195,10784,5085,36,26
196,10791,5087,36,21
197,10799,5084,35,22
198,10778,5085,36,21
199,10810,5085,37,21
200,10793,5085,36,24
201,10795,5083,36,22
202,10800,5087,38,22
203,10777,5085,37,25
204,10794,5085,35,27
205,10784,5083,36,27
206,10779,5086,37,28
207,10797,5083,38,25
208,10777,5083,37,22
209,10794,5083,37,20
210,10788,5085,35,22
211,10791,5087,36,22
212,10809,5085,36,23
213,10791,5084,34,23
214,10805,5084,35,20
215,10795,5084,36,23
216,10802,5086,38,23
217,10830,5084,37,25
218,10810,5084,37,24
219,10829,5086,35,23
220,10845,5085,38,23
221,10827,5087,36,24
222,10863,5085,37,21
223,10847,5085,37,24
224,10862,5087,36,21
225,10867,5085,36,22
226,10853,5087,37,20
227,10868,5086,38,24
228,10832,5086,35,27
229,10835,5085,35,25
230,10812,5083,35,22
231,10777,5084,37,21
232,10768,5082,37,19
233,10713,5083,38,20
234,10689,5086,36,20
235,10676,5082,37,23
236,10625,5083,38,24
237,10625,5083,37,23
238,10591,5081,36,25
239,10565,5084,37,22
240,10582,5082,37,19
241,10545,5083,36,22
242,10555,5082,37,25
243,10533,5080,36,22
244,10536,5081,37,20
245,10552,5079,36,17
246,10527,5080,38,21
247,10547,5082,36,21
248,10544,5081,37,20
249,10543,5081,37,20
250,10564,5081,36,25
251,10552,5079,36,24
252,10557,5078,37,21
253,10561,5082,37,19
254,10557,5082,36,22
255,10574,5080,36,23
256,10560,5079,37,22
257,10558,5080,37,19
258,10571,5080,38,23
259,10549,5080,37,23
260,10573,5079,37,22
261,10557,5080,38,24
262,10556,5080,36,24
263,10561,5081,37,21
264,10533,5080,36,21
265,10557,5079,36,23
266,10543,5080,34,22
267,10547,5080,37,23
268,10562,5080,36,25
269,10539,5079,37,25
270,10565,5078,37,23
271,10549,5079,37,24
272,10558,5078,36,21
273,10582,5080,36,20
274,10567,5078,38,21
275,10573,5082,35,22
276,10588,5079,36,24
277,10582,5081,36,22
278,10609,5078,36,21
279,10594,5078,37,22
280,10613,5079,37,21
281,10618,5080,37,21
282,10613,5080,38,20
283,10640,5080,36,23
284,10614,5080,38,25
285,10622,5080,37,25
286,10605,5080,37,24
287,10569,5080,38,23
288,10571,5080,36,24
289,10527,5080,36,23
290,10498,5080,36,23
291,10476,5079,35,25
292,10430,5081,38,24
293,10424,5079,37,24
294,10391,5078,37,22
295,10357,5079,37,22
296,10365,5077,38,23
297,10324,5077,36,24
298,10334,5079,36,21
299,10318,5077,36,22
300,10308,5077,37,24
301,10313,5077,37,25
302,10294,5078,37,22
303,10315,5079,36,20
304,10299,5077,37,21
305,10303,5078,38,19
306,10323,5079,39,22
307,10310,5077,37,24
308,10320,5078,37,21
309,10316,5077,36,20
310,10320,5079,38,20
311,10345,5079,38,25
312,10323,5077,36,27
313,10327,5078,36,23
314,10338,5078,35,20
315,10317,5076,35,18
316,10335,5078,37,23
317,10317,5077,36,26
318,10331,5076,38,26
319,10333,5078,37,23
320,10309,5076,36,25
321,10329,5077,38,23
322,10311,5076,38,22
323,10313,5080,36,23
324,10322,5078,37,25
325,10304,5077,36,23
326,10330,5078,36,20
327,10306,5078,37,20
328,10318,5077,36,21
329,10331,5075,37,24
330,10315,5079,36,22
331,10346,5078,36,22
332,10347,5077,37,25
333,10336,5078,35,24
334,10362,5076,37,23
335,10347,5076,36,25
336,10367,5080,36,24
337,10372,5079,36,22
338,10367,5078,36,21
339,10392,5079,36,23
340,10371,5079,36,24
341,10379,5080,36,22
342,10376,5079,38,21
343,10358,5079,37,20
344,10361,5079,38,26
345,10321,5078,36,27
346,10304,5076,37,23
347,10281,5078,37,23
348,10238,5077,37,26
349,10231,5076,36,26
350,10178,5077,37,26
351,10151,5073,38,25
352,10148,5074,36,21
353,10105,5073,36,26
354,10112,5073,35,24
355,10079,5075,36,22
356,10080,5075,38,24
357,10081,5075,36,21
358,10054,5074,36,23
359,10074,5074,37,23
360,10055,5073,36,24
361,10063,5075,39,25
362,10083,5074,37,25
363,10059,5074,36,22
364,10082,5075,35,23
365,10075,5075,35,24
366,10073,5075,37,24
367,10091,5075,36,27
368,10081,5075,37,28
369,10093,5076,36,27
370,10103,5073,38,25
371,10087,5076,36,22
372,10110,5074,36,25
373,10086,5074,37,21
374,10091,5076,36,22
375,10096,5074,36,23
376,10078,5075,35,22
377,10098,5073,38,22
378,10072,5074,36,19
379,10084,5074,35,18
380,10094,5073,35,21
381,10074,5074,35,23
382,10099,5075,37,23
383,10086,5073,37,21
384,10093,5075,36,22
385,10104,5075,36,25
386,10089,5074,37,26
387,10111,5077,37,25
388,10105,5073,37,26
389,10104,5075,37,24
390,10131,5072,36,24
391,10113,5074,37,24
392,10136,5073,37,23
393,10137,5072,38,21
394,10142,5074,37,23
395,10168,5074,35,23
396,10153,5075,36,22
397,10173,5073,36,20
398,10171,5073,38,23
399,10168,5076,35,24
400,10185,5073,36,26
401,10153,5073,37,25
402,10153,5072,35,24
403,10145,5075,37,23
404,10108,5075,38,23
405,10103,5073,37,22
406,10057,5073,37,24
407,10032,5073,37,24
408,10010,5071,38,20
409,9962,5072,36,24
410,9962,5071,35,24
411,9923,5070,36,22
412,9912,5072,37,23
413,9906,5072,35,26
414,9875,5069,37,24
415,9881,5071,37,22
416,9858,5072,37,22
417,9863,5072,37,20
418,9874,5072,36,26
419,9858,5073,36,24
420,9879,5072,37,25
421,9868,5069,35,26
422,9867,5074,38,22
423,9895,5073,38,22
424,9875,5072,38,23
425,9896,5072,37,22
426,9914,5070,36,22
427,9894,5070,36,27
428,9925,5072,36,21
429,9902,5071,37,24
430,9916,5070,35,22
431,9913,5072,37,23
432,9900,5070,38,21
433,9920,5071,36,18
434,9902,5070,35,21
435,9910,5073,35,22
436,9915,5071,37,20
437,9896,5071,36,22
438,9921,5072,36,23
439,9913,5072,37,25
440,9920,5074,38,25
441,9937,5074,37,23
442,9918,5071,35,21
443,9942,5073,38,23
444,9930,5072,37,24
445,9941,5074,36,23
446,9966,5073,37,24
447,9948,5073,37,22
448,9977,5071,36,21
449,9964,5074,39,21
450,9974,5074,37,24
451,9995,5074,38,27
452,9973,5073,37,24
453,9992,5072,37,21
454,9993,5073,37,21
455,9992,5075,38,23
456,10015,5073,38,23
457,10002,5072,35,22
458,10024,5075,36,22
459,10026,5074,36,20
460,10019,5075,38,22
461,10035,5074,36,22
462,10010,5074,36,22
463,10014,5075,36,21
464,10001,5073,35,23
465,9961,5075,36,20
466,9961,5074,35,20
467,9915,5073,37,25
468,9904,5074,38,24
469,9885,5073,36,23
470,9841,5073,36,21
471,9853,5072,37,23
472,9803,5072,37,25
473,9794,5073,37,26
474,9788,5072,36,24
475,9757,5072,37,20
476,9771,5072,36,22
477,9743,5070,36,22
478,9733,5072,36,19
479,9750,5072,36,19
480,9731,5069,36,21
481,9745,5069,37,22
482,9734,5068,37,22
483,9733,5071,37,25
484,9767,5069,36,24
485,9746,5069,36,25
486,9757,5071,37,24
487,9771,5072,38,22
488,9773,5070,37,23
489,9791,5072,36,23
490,9772,5072,36,20
491,9788,5071,36,21
492,9792,5072,37,25
493,9788,5072,36,24
494,9809,5073,37,22
495,9790,5073,36,23
496,9803,5071,36,20
497,9809,5071,35,19
498,9796,5072,36,19
499,9817,5072,37,21
500,9804,5072,36,21
501,9814,5070,36,23
502,9824,5071,34,22
503,9809,5072,37,23
504,9829,5073,38,22
505,9822,5072,37,22
506,9830,5074,37,24
507,9857,5073,37,25
508,9836,5073,37,26
509,9869,5074,36,22
510,9862,5072,37,22
511,9880,5073,37,21
512,9893,5074,36,21
513,9888,5074,37,23
514,9912,5073,36,22
515,9911,5073,37,22
516,9917,5074,37,23
517,9947,5073,38,21
518,9930,5073,37,21
519,9955,5073,37,23
520,9959,5074,37,22
521,9960,5075,36,21
522,9987,5076,37,24
523,9975,5074,37,24
524,9983,5074,36,22
525,9985,5076,36,27
526,9969,5075,37,23
527,9987,5074,37,22
528,9947,5076,35,20
529,9937,5075,36,19
530,9921,5073,37,21
531,9870,5072,37,23
532,9868,5073,39,25
533,9828,5073,36,24
534,9815,5074,38,22
535,9802,5072,36,21
536,9768,5072,37,21
537,9769,5073,38,24
538,9746,5072,37,25
539,9737,5070,38,24
540,9734,5073,37,25
541,9717,5072,37,21
542,9732,5070,37,19
543,9724,5070,35,23
544,9718,5072,36,23
545,9743,5072,36,24
546,9729,5072,37,26
547,9741,5073,37,22
548,9733,5072,36,22
549,9741,5072,38,19
550,9769,5071,37,20
551,9745,5072,37,25
552,9763,5073,37,25
553,9773,5073,36,24
554,9772,5074,38,22
555,9790,5073,37,22
556,9766,5074,35,22
557,9785,5075,37,26
558,9786,5073,38,24
559,9780,5074,36,25
560,9794,5071,36,26
561,9778,5073,38,21
562,9788,5072,37,23
563,9800,5072,36,26
564,9780,5074,36,26
565,9804,5073,36,26
566,9789,5073,37,27
567,9797,5073,37,25
568,9817,5072,35,25
569,9798,5072,36,24
570,9834,5071,36,22
571,9820,5073,36,24
572,9827,5072,37,23
573,9845,5073,37,23
574,9830,5073,37,23
575,9856,5072,35,22
576,9852,5072,36,22
577,9858,5072,36,23
578,9884,5074,38,23
579,9876,5074,36,22
580,9891,5073,36,27
581,9894,5074,36,25
582,9897,5073,35,22
583,9931,5073,35,23
584,9912,5074,37,21
585,9928,5075,36,21
586,9943,5074,38,22
587,9939,5075,37,24
588,9969,5076,38,26
589,9950,5075,38,25
590,9957,5075,35,24
591,9952,5073,36,21
592,9928,5075,36,21
593,9933,5074,38,21
594,9893,5072,38,24
595,9881,5073,37,20
596,9864,5074,36,15
597,9821,5072,38,22
598,9813,5072,37,23
599,9778,5074,37,25
600,9757,5073,37,24
601,9761,5073,35,24
602,9725,5070,36,23
603,9728,5073,37,25
604,9707,5071,37,23
605,9701,5072,37,20
606,9713,5071,36,19
607,9679,5071,36,25
608,9697,5073,37,22
609,9698,5070,36,21
610,9699,5072,38,22
611,9722,5070,36,23
612,9702,5070,36,24
613,9719,5071,39,22
614,9734,5071,37,21
615,9718,5072,36,24
616,9748,5072,36,17
617,9743,5073,37,23
618,9750,5072,36,19
619,9761,5072,38,23
620,9751,5071,36,21
621,9772,5070,36,19
622,9759,5073,34,20
623,9769,5073,36,24
624,9777,5073,37,24
625,9762,5073,37,22
626,9773,5072,37,19
627,9760,5072,37,20
628,9764,5074,35,19
629,9786,5073,37,21
630,9761,5073,37,21
631,9794,5071,37,21
632,9778,5072,36,24
633,9784,5073,36,20
634,9802,5071,35,20
635,9794,5072,36,24
636,9815,5073,36,22
637,9815,5072,37,22
638,9814,5072,37,24
639,9845,5071,36,23
640,9833,5073,38,24
641,9863,5074,36,24
642,9871,5072,38,23
643,9866,5075,36,23
644,9895,5074,37,21
645,9883,5073,37,23
646,9902,5073,36,23
647,9909,5073,38,25
648,9908,5076,35,24
649,9940,5074,37,22
650,9924,5075,37,22
651,9944,5077,36,21
652,9962,5075,36,23
653,9943,5077,36,23
654,9973,5076,35,25
655,9970,5076,36,21
656,9970,5076,36,24
657,9990,5077,36,23
658,9956,5076,36,22
659,9965,5077,38,21
660,9934,5075,38,19
661,9919,5076,35,22
662,9908,5073,37,22
663,9863,5075,38,24
664,9858,5076,36,24
665,9825,5073,37,23
666,9799,5074,37,19
667,9797,5074,34,20
668,9755,5074,37,23
669,9750,5074,37,23
670,9738,5076,36,23
671,9729,5073,36,23
672,9739,5074,38,20
673,9718,5073,37,21
674,9721,5073,36,19
675,9725,5073,36,23
676,9705,5074,37,20
677,9737,5075,36,22
678,9723,5074,37,23
679,9736,5075,35,23
680,9751,5074,37,23
681,9739,5076,37,25
682,9764,5073,36,26
683,9758,5073,37,23
684,9774,5076,35,20
685,9788,5074,35,19
686,9776,5077,37,20
687,9803,5075,37,19
688,9793,5076,36,22
689,9793,5075,37,22
690,9807,5076,37,23
691,9792,5074,35,23
692,9809,5075,37,23
693,9804,5075,35,26
694,9801,5077,37,23
695,9826,5074,36,22
696,9804,5074,37,22
697,9824,5076,35,20
698,9824,5073,36,22
699,9822,5073,37,22
700,9844,5075,35,23
701,9834,5075,36,25
702,9860,5076,37,24
703,9865,5076,37,24
704,9862,5076,35,25
705,9894,5074,36,23
706,9882,5075,36,23
707,9897,5077,39,25
708,9916,5075,36,26
709,9902,5076,37,26
710,9934,5076,36,25
711,9931,5076,36,25
712,9940,5077,37,24
713,9962,5078,36,26
714,9954,5076,35,23
715,9985,5077,37,28
716,9978,5078,35,26
717,9991,5078,36,25
718,10014,5075,35,26
719,10000,5077,36,25
720,10033,5076,35,24
721,10019,5077,37,22
722,10035,5077,37,22
723,10064,5077,35,25
724,10045,5079,37,22
725,10067,5076,35,22
726,10057,5075,36,25
727,10038,5077,36,25
728,10044,5078,37,23
729,10007,5075,36,23
730,9980,5077,37,25
731,9976,5076,37,24
732,9934,5075,36,24
733,9930,5077,37,26
734,9890,5073,36,25
735,9878,5077,36,25
736,9863,5076,37,25
737,9842,5077,38,24
738,9854,5077,37,22
739,9828,5077,36,19
740,9827,5077,36,19
741,9835,5076,36,21
742,9813,5077,35,23
743,9838,5076,35,23
744,9823,5077,37,23
745,9832,5076,36,21
746,9847,5077,36,21
747,9831,5077,37,24
748,9858,5075,37,25
749,9869,5077,36,23
750,9866,5076,37,26
751,9890,5076,36,18
752,9874,5077,37,21
753,9902,5075,37,20
754,9898,5076,37,22
755,9896,5078,37,26
756,9919,5079,36,26
757,9906,5077,36,25
758,9924,5077,36,23
759,9916,5075,37,21
760,9907,5077,36,22
761,9933,5077,38,20
762,9911,5077,36,23
763,9924,5075,36,23
764,9935,5073,37,27
765,9924,5075,37,27
766,9943,5076,37,22
767,9938,5075,38,21
768,9943,5077,36,24
769,9967,5076,38,22
770,9952,5075,37,22
771,9982,5076,35,26
772,9972,5078,35,25
773,9984,5078,36,23
774,10006,5076,37,22
775,9983,5078,36,21
776,10014,5077,36,26
777,10003,5076,35,26
778,10027,5079,37,26
779,10048,5073,38,26
780,10030,5076,35,24
781,10056,5078,36,22
782,10058,5077,36,25
783,10067,5077,36,20
784,10096,5077,35,22
785,10080,5078,36,24
786,10105,5079,36,20
787,10118,5080,36,26
788,10113,5078,37,23
789,10140,5078,35,23
790,10125,5079,38,22
791,10151,5079,38,25
792,10167,5079,37,24
793,10164,5079,36,24
794,10194,5080,36,24
795,10184,5078,37,22
796,10193,5080,37,18
797,10196,5079,38,20
798,10175,5079,37,20
799,10180,5080,36,22
800,10147,5080,37,21
801,10137,5080,37,18
802,10125,5079,36,22
803,10075,5080,37,21
804,10072,5079,36,20
805,10037,5079,36,22
806,10007,5077,35,22
807,10018,5077,36,26
808,9979,5075,37,24
809,9992,5076,38,25
810,9968,5077,36,25
811,9964,5076,36,22
812,9976,5077,37,23
813,9955,5077,36,27
814,9968,5078,36,21
815,9966,5076,37,23
816,9963,5077,37,26
817,9993,5077,38,25
818,9981,5078,37,24
819,10003,5079,37,23
820,9998,5078,36,22
821,9998,5076,36,21
822,10024,5077,38,21
823,10005,5078,38,23
824,10023,5078,37,26
825,10045,5076,36,22
826,10022,5078,37,24
827,10053,5077,37,22
828,10039,5075,36,21
829,10046,5078,37,23
830,10054,5078,36,21
831,10037,5080,36,20
832,10066,5078,37,19
833,10050,5076,35,21
834,10052,5078,38,21
835,10069,5077,36,27
836,10054,5080,36,24
837,10075,5080,36,25
838,10069,5078,38,20
839,10072,5079,36,21
840,10095,5077,36,24
841,10082,5079,36,24
842,10104,5079,36,24
843,10121,5076,37,22
844,10114,5078,37,25
845,10136,5079,37,19
846,10125,5078,38,23
847,10152,5079,35,26
848,10154,5079,35,25
849,10156,5081,35,18
850,10190,5080,36,20
851,10179,5079,35,20
852,10203,5079,38,19
853,10207,5079,37,20
854,10205,5080,36,17
855,10240,5079,35,19
856,10226,5079,37,24
857,10251,5080,36,25
858,10261,5080,36,24
859,10249,5080,36,22
860,10287,5082,36,21
861,10293,5080,38,24
862,10287,5081,36,22
863,10319,5078,35,24
864,10303,5081,36,23
865,10325,5081,35,22
866,10315,5082,36,24
867,10314,5082,36,23
868,10324,5082,36,23
869,10284,5083,36,21
870,10287,5081,37,19
871,10250,5083,35,21
872,10227,5082,37,20
873,10222,5080,37,23
874,10180,5081,35,26
875,10168,5079,36,25
876,10142,5079,36,24
877,10122,5079,36,25
878,10131,5077,35,25
879,10100,5079,36,25
880,10103,5079,36,25
881,10114,5080,36,22
882,10087,5079,36,25
883,10111,5081,37,21
884,10097,5081,37,24
885,10107,5081,37,23
886,10125,5078,36,20
887,10115,5080,36,21
888,10146,5080,36,19
889,10143,5081,38,20
890,10156,5082,37,22
891,10170,5081,36,24
892,10159,5081,38,22
893,10182,5081,36,19
894,10176,5079,37,20
895,10190,5081,37,18
896,10209,5081,36,21
897,10190,5082,36,21
898,10215,5081,38,25
899,10224,5081,36,26
900,10205,5082,37,22
901,10238,5081,36,22
902,10208,5080,36,23
903,10221,5080,36,20
904,10227,5080,36,23
905,10221,5081,37,27
906,10242,5082,36,25
907,10224,5080,36,24
908,10238,5081,37,25
909,10244,5079,36,24
910,10239,5082,35,22
911,10263,5083,36,20
912,10251,5082,36,21
913,10273,5082,37,21
914,10291,5082,36,21
915,10278,5082,36,22
916,10305,5082,37,23
917,10307,5082,35,26
918,10315,5082,37,26
919,10345,5082,37,21
920,10327,5080,35,24
921,10361,5084,36,23
922,10349,5084,38,23
923,10370,5082,35,22
924,10394,5082,36,22
925,10382,5084,36,25
926,10415,5084,35,25
927,10411,5083,36,24
928,10425,5085,36,20
929,10450,5083,36,21
930,10432,5083,36,21
931,10464,5084,35,23
932,10464,5085,36,26
933,10476,5084,35,26
934,10494,5082,37,22
935,10477,5084,36,20
936,10496,5086,36,21
937,10498,5084,36,20
938,10476,5085,36,22
939,10485,5086,36,23
940,10451,5084,36,25
941,10442,5084,35,23
942,10420,5085,36,22
943,10378,5084,37,21
944,10375,5084,36,22
945,10329,5084,37,22
946,10315,5084,36,24
947,10310,5083,36,26
948,10281,5083,36,26
949,10296,5083,35,21
950,10266,5082,35,22
951,10270,5081,36,23
952,10274,5081,38,22
953,10257,5083,36,23
954,10278,5084,38,23
955,10268,5082,36,25
956,10270,5082,37,24
957,10295,5082,37,24
958,10277,5081,35,24
959,10305,5083,36,22
960,10308,5082,36,24
961,10320,5082,35,19
962,10345,5084,37,21
963,10334,5083,36,25
964,10356,5085,36,21
965,10355,5083,37,21
966,10344,5085,37,22
967,10366,5085,35,23
968,10347,5085,36,24
969,10368,5085,36,26
970,10363,5084,37,26
971,10353,5083,37,27
972,10375,5086,37,24
973,10351,5083,36,24
974,10355,5086,39,20
975,10385,5085,37,20
976,10365,5085,36,20
977,10391,5086,36,22
978,10385,5085,37,24
979,10394,5086,36,23
980,10409,5084,37,22
981,10393,5085,36,23
982,10430,5083,37,21
983,10414,5085,37,21
984,10420,5086,36,22
985,10448,5085,37,24
986,10433,5086,35,27
987,10464,5086,38,24
988,10463,5087,37,23
989,10477,5089,37,21
990,10506,5087,37,21
991,10487,5088,37,22
992,10523,5090,36,25
993,10533,5087,36,23
994,10530,5087,37,23
995,10563,5086,37,24
996,10554,5085,36,23
997,10567,5086,36,23
998,10574,5085,37,22
999,10567,5088,37,21
